"Physical Time: Physical Time (s)","Surface Average Rear Temp1 Monitor: Surface Average of Temperature (K)"
0.0005,1473
0.001,1473
0.0015,1473.00000000001
0.002,1473.00000000002
0.0025,1473.00000000004
0.003,1473.00000000008
0.0035,1473.00000000013
0.004,1473.00000000017
0.0045,1473.00000000015
0.005,1472.99999999996
0.0055,1472.99999999947
0.006,1472.99999999849
0.0065,1472.99999999678
0.007,1472.99999999413
0.0075,1472.99999999035
0.008,1472.9999999854
0.0085,1472.99999997946
0.009,1472.99999997309
0.00950000000000001,1472.99999996745
0.01,1472.99999996446
0.0105,1472.9999999671
0.011,1472.99999997973
0.0115,1473.00000000836
0.012,1473.00000006113
0.0125,1473.00000014862
0.013,1473.00000028438
0.0135,1473.00000048533
0.014,1473.0000007723
0.0145,1473.00000117053
0.015,1473.00000171017
0.0155,1473.00000242681
0.016,1473.00000336201
0.0165,1473.00000456384
0.017,1473.00000608733
0.0175,1473.00000799504
0.018,1473.00001035747
0.0185,1473.0000132535
0.019,1473.00001677085
0.0195,1473.00002100654
0.02,1473.00002606688
0.0205,1473.00003206817
0.021,1473.00003913682
0.0215,1473.0000474095
0.022,1473.00005703337
0.0225,1473.0000681662
0.023,1473.0000809764
0.0235,1473.00009564308
0.024,1473.00011235599
0.0245,1473.00013131549
0.025,1473.00015273238
0.0255,1473.00017682778
0.026,1473.00020383287
0.0265,1473.00023398872
0.027,1473.0002675459
0.0275,1473.00030476422
0.028,1473.00034591234
0.0285,1473.00039126739
0.029,1473.00044111451
0.0295,1473.00049574643
0.03,1473.00055546299
0.0305,1473.00062057061
0.031,1473.0006913818
0.0315,1473.00076821459
0.032,1473.00085139204
0.0325,1473.0009412416
0.033,1473.00103809461
0.0335,1473.00114228568
0.034,1473.00125415213
0.0345,1473.00137403341
0.035,1473.00150227053
0.0355,1473.00163920544
0.036,1473.00178518052
0.0365,1473.00194053798
0.037,1473.00210561929
0.0375,1473.0022807647
0.038,1473.00246631262
0.0385,1473.00266259919
0.039,1473.00286995768
0.0395,1473.00308871809
0.04,1473.00331920663
0.0405,1473.00356174524
0.041,1473.00381665122
0.0415,1473.00408423675
0.042,1473.00436480853
0.0425,1473.00465866735
0.043,1473.00496610779
0.0435,1473.00528741784
0.044,1473.00562287861
0.0445,1473.00597276398
0.045,1473.00633734038
0.0455,1473.00671686648
0.046,1473.00711159301
0.0465,1473.00752176248
0.047,1473.00794760902
0.0475,1473.00838935819
0.048,1473.00884722683
0.0485,1473.0093214229
0.049,1473.00981214537
0.0495,1473.01031958411
0.05,1473.01084391983
0.0505,1473.01138532396
0.051,1473.01194395863
0.0515,1473.01251997663
0.052,1473.01311352137
0.0525,1473.01372472688
0.053,1473.01435371785
0.0535,1473.01500060957
0.054,1473.01566550804
0.0545,1473.01634850997
0.055,1473.01704970286
0.0555,1473.01776916504
0.056,1473.01850696578
0.0565,1473.01926316534
0.057,1473.0200378151
0.0575,1473.02083095765
0.058,1473.02164262689
0.0585,1473.02247284819
0.059,1473.02332163847
0.0595,1473.02418900635
0.06,1473.02507495232
0.0605,1473.02597946887
0.061,1473.02690254059
0.0615,1473.02784414441
0.062,1473.02880424969
0.0625,1473.02978281845
0.063,1473.03077980544
0.0635,1473.03179515841
0.064,1473.03282881823
0.0645,1473.03388071906
0.065,1473.03495078856
0.0655,1473.03603894802
0.066,1473.03714511257
0.0665,1473.03826919136
0.067,1473.03941108771
0.0675,1473.04057069934
0.068,1473.04174791849
0.0685,1473.04294263214
0.069,1473.04415472216
0.0695,1473.04538406554
0.07,1473.04663053448
0.0705,1473.04789399666
0.071,1473.04917431533
0.0715000000000001,1473.05047134955
0.0720000000000001,1473.05178495431
0.0725000000000001,1473.05311498075
0.0730000000000001,1473.05446127626
0.0735000000000001,1473.05582368469
0.0740000000000001,1473.05720204654
0.0745000000000001,1473.05859619903
0.0750000000000001,1473.06000597636
0.0755000000000001,1473.06143120978
0.0760000000000001,1473.06287172779
0.0765000000000001,1473.0643273563
0.0770000000000001,1473.06579791873
0.0775000000000001,1473.0672832362
0.0780000000000001,1473.06878312763
0.0785000000000001,1473.07029740991
0.0790000000000001,1473.07182589805
0.0795000000000001,1473.07336840525
0.0800000000000001,1473.0749247431
0.0805000000000001,1473.07649472166
0.0810000000000001,1473.0780781496
0.0815000000000001,1473.07967483434
0.0820000000000001,1473.08128458212
0.0825000000000001,1473.08290719816
0.0830000000000001,1473.08454248676
0.0835000000000001,1473.08619025139
0.0840000000000001,1473.08785029483
0.0845000000000001,1473.08952241923
0.0850000000000001,1473.09120642626
0.0855000000000001,1473.09290211716
0.0860000000000001,1473.09460929286
0.0865000000000001,1473.09632775409
0.0870000000000001,1473.0980573014
0.0875000000000001,1473.09979773535
0.0880000000000001,1473.10154885649
0.0885000000000001,1473.1033104655
0.0890000000000001,1473.10508236325
0.0895000000000001,1473.1068643509
0.0900000000000001,1473.10865622993
0.0905000000000001,1473.11045780224
0.0910000000000001,1473.1122688702
0.0915000000000001,1473.11408923675
0.0920000000000001,1473.11591870541
0.0925000000000001,1473.11775708038
0.0930000000000001,1473.11960416659
0.0935000000000001,1473.12145976974
0.0940000000000001,1473.12332369639
0.0945000000000001,1473.12519575395
0.0950000000000001,1473.1270757508
0.0955000000000001,1473.12896349629
0.0960000000000001,1473.1308588008
0.0965000000000001,1473.13276147578
0.0970000000000001,1473.13467133379
0.0975000000000001,1473.13658818856
0.0980000000000001,1473.13851185498
0.0985000000000001,1473.14044214919
0.0990000000000001,1473.14237888859
0.0995000000000001,1473.14432189185
0.1,1473.14627097899
0.1005,1473.14822597134
0.101,1473.15018669166
0.1015,1473.15215296407
0.102,1473.15412445571
0.1025,1473.15610115054
0.103,1473.15808289308
0.1035,1473.16006951337
0.104,1473.16206084018
0.1045,1473.16405670394
0.105,1473.16605693725
0.1055,1473.16806137477
0.106,1473.17006985318
0.1065,1473.17208221097
0.107,1473.17409828845
0.1075,1473.17611792764
0.108,1473.17814097229
0.1085,1473.18016726785
0.109,1473.18219666142
0.1095,1473.18422900182
0.11,1473.18626413948
0.1105,1473.18830192657
0.111,1473.19034221686
0.1115,1473.19238486584
0.112,1473.19442973063
0.1125,1473.19647667005
0.113,1473.19852554455
0.1135,1473.20057621627
0.114,1473.20262854901
0.1145,1473.20468240823
0.115,1473.20673766103
0.1155,1473.20879417619
0.116,1473.21085182412
0.1165,1473.2129104769
0.117,1473.21497000823
0.1175,1473.21703029345
0.118,1473.21909120954
0.1185,1473.22115263512
0.119,1473.22321445038
0.1195,1473.22527653718
0.12,1473.22733877895
0.1205,1473.22940106072
0.121,1473.23146326913
0.1215,1473.23352529237
0.122,1473.23558702022
0.1225,1473.23764834403
0.123,1473.2397091567
0.1235,1473.24176935266
0.124,1473.24382882789
0.1245,1473.24588747989
0.125,1473.24794520769
0.1255,1473.25000191179
0.126,1473.25205749421
0.1265,1473.25411185846
0.127,1473.25616490949
0.1275,1473.25821655374
0.128,1473.26026669909
0.1285,1473.26231525484
0.129,1473.26436213175
0.1295,1473.26640724197
0.13,1473.26845049906
0.1305,1473.27049181795
0.131,1473.272531115
0.1315,1473.27456830787
0.132,1473.27660331562
0.1325,1473.27863605863
0.133,1473.28066645861
0.1335,1473.28269443861
0.134,1473.28471992294
0.1345,1473.28674283724
0.135,1473.28876310841
0.1355,1473.29078066462
0.136,1473.29279543528
0.1365,1473.29480735106
0.137,1473.29681634385
0.1375,1473.29882234675
0.138,1473.30082529406
0.1385,1473.30282512128
0.139,1473.30482176508
0.1395,1473.30681516328
0.14,1473.30880525489
0.1405,1473.31079198
0.141,1473.31277527989
0.1415,1473.3147550969
0.142,1473.3167313745
0.1425,1473.31870405724
0.143,1473.32067309073
0.1435,1473.32263842168
0.144,1473.32459999781
0.1445,1473.3265577679
0.145,1473.32851168176
0.1455,1473.3304616902
0.146,1473.33240774503
0.1465,1473.33434979906
0.147,1473.33628780607
0.1475,1473.33822172082
0.148,1473.340151499
0.1485,1473.34207709726
0.149,1473.34399847317
0.1495,1473.34591558522
0.15,1473.34782839281
0.1505,1473.34973685624
0.151,1473.35164093667
0.1515,1473.35354059615
0.152,1473.3554357976
0.1525,1473.35732650477
0.153,1473.35921268227
0.1535,1473.36109429551
0.154,1473.36297131073
0.1545,1473.364843695
0.155,1473.36671141614
0.1555,1473.36857444278
0.156,1473.37043274434
0.1565,1473.37228629095
0.157,1473.37413505356
0.1575,1473.37597900382
0.158,1473.37781811411
0.1585,1473.37965235756
0.159,1473.38148170799
0.1595,1473.38330613994
0.16,1473.38512562861
0.1605,1473.38694014994
0.161,1473.38874968047
0.1615,1473.39055419747
0.162,1473.39235367882
0.1625,1473.39414810308
0.163,1473.39593744942
0.1635,1473.39772169764
0.164,1473.39950082817
0.1645,1473.40127482203
0.165,1473.40304366086
0.1655,1473.40480732688
0.166,1473.4065658029
0.1665,1473.40831907228
0.167,1473.41006711898
0.1675,1473.4118099275
0.168,1473.41354748288
0.1685,1473.41527977071
0.169,1473.41700677711
0.1695,1473.41872848873
0.17,1473.42044489273
0.1705,1473.42215597679
0.171,1473.42386172906
0.1715,1473.42556213822
0.172,1473.42725719342
0.1725,1473.42894688427
0.173,1473.43063120089
0.1735,1473.43231013382
0.174,1473.4339836741
0.1745,1473.43565181317
0.175,1473.43731454296
0.1755,1473.4389718558
0.176,1473.44062374446
0.1765,1473.44227020214
0.177,1473.44391122245
0.1775,1473.44554679939
0.178,1473.44717692738
0.1785,1473.44880160123
0.179,1473.45042081614
0.1795,1473.4520345677
0.18,1473.45364285185
0.1805,1473.45524566492
0.181,1473.45684300361
0.1815,1473.45843486496
0.182,1473.46002124637
0.1825,1473.46160214559
0.183,1473.4631775607
0.1835,1473.46474749011
0.184,1473.46631193259
0.1845,1473.4678708872
0.185,1473.46942435332
0.1855,1473.47097233067
0.186,1473.47251481925
0.1865,1473.47405181938
0.187,1473.47558333165
0.1875,1473.47710935697
0.188,1473.47862989652
0.1885,1473.48014495178
0.189,1473.48165452447
0.1895,1473.48315861663
0.19,1473.48465723052
0.1905,1473.4861503687
0.191,1473.48763803395
0.1915,1473.48912022935
0.192,1473.49059695819
0.1925,1473.49206822401
0.193,1473.49353403061
0.1935,1473.494994382
0.194,1473.49644928243
0.1945,1473.49789873638
0.195,1473.49934274856
0.1955,1473.50078132388
0.196,1473.50221446747
0.1965,1473.50364218468
0.197,1473.50506448105
0.1975,1473.50648136234
0.198,1473.5078928345
0.1985,1473.50929890367
0.199,1473.51069957618
0.1995,1473.51209485857
0.2,1473.51348475753
0.2005,1473.51486927996
0.201,1473.51624843292
0.2015,1473.51762222364
0.202,1473.51899065953
0.2025,1473.52035374816
0.203,1473.52171149727
0.2035,1473.52306391475
0.204,1473.52441100866
0.2045,1473.5257527872
0.205,1473.52708925872
0.2055,1473.52842043173
0.206,1473.52974631487
0.2065,1473.53106691693
0.207,1473.53238224684
0.2075,1473.53369231365
0.208,1473.53499712656
0.2085,1473.53629669489
0.209,1473.53759102809
0.2095,1473.53888013573
0.21,1473.5401640275
0.2105,1473.54144271322
0.211,1473.54271620281
0.2115,1473.54398450632
0.212,1473.54524763389
0.2125,1473.54650559579
0.213,1473.54775840239
0.2135,1473.54900606414
0.214,1473.55024859163
0.2145,1473.55148599552
0.215,1473.55271828658
0.2155,1473.55394547566
0.216,1473.55516757371
0.2165,1473.55638459178
0.217,1473.55759654099
0.2175,1473.55880343255
0.218,1473.56000527776
0.2185,1473.56120208799
0.219,1473.5623938747
0.2195,1473.56358064942
0.22,1473.56476242375
0.2205,1473.56593920938
0.221,1473.56711101805
0.2215,1473.56827786159
0.222,1473.56943975187
0.2225,1473.57059670086
0.223,1473.57174872055
0.2235,1473.57289582304
0.224,1473.57403802045
0.2245,1473.57517532497
0.225,1473.57630774888
0.2255,1473.57743530444
0.226,1473.57855800405
0.2265,1473.57967586009
0.227,1473.58078888504
0.2275,1473.5818970914
0.228,1473.58300049172
0.2285,1473.58409909859
0.229,1473.58519292468
0.2295,1473.58628198266
0.23,1473.58736628525
0.2305,1473.58844584523
0.231,1473.58952067539
0.2315,1473.59059078857
0.232,1473.59165619765
0.2325,1473.59271691555
0.233,1473.59377295519
0.2335,1473.59482432956
0.234,1473.59587105166
0.2345,1473.5969131345
0.235,1473.59795059116
0.2355,1473.59898343472
0.236,1473.60001167829
0.2365,1473.601035335
0.237,1473.60205441801
0.2375,1473.60306894049
0.238,1473.60407891565
0.2385,1473.6050843567
0.239,1473.60608527688
0.2395,1473.60708168943
0.24,1473.60807360764
0.2405,1473.60906104478
0.241,1473.61004401415
0.2415,1473.61102252906
0.242,1473.61199660284
0.2425,1473.61296624882
0.243,1473.61393148034
0.2435,1473.61489231077
0.244,1473.61584875346
0.2445,1473.61680082178
0.245,1473.61774852912
0.2455,1473.61869188884
0.246,1473.61963091434
0.2465,1473.62056561902
0.247,1473.62149601626
0.2475,1473.62242211947
0.248,1473.62334394204
0.2485,1473.62426149737
0.249,1473.62517479887
0.2495,1473.62608385993
0.25,1473.62698869395
0.2505,1473.62788931432
0.251,1473.62878573445
0.2515,1473.62967796771
0.252,1473.6305660275
0.2525,1473.6314499272
0.253,1473.63232968017
0.2535,1473.6332052998
0.254,1473.63407679944
0.2545,1473.63494419245
0.255,1473.63580749218
0.2555,1473.63666671195
0.256,1473.63752186511
0.2565,1473.63837296497
0.257,1473.63922002485
0.2575,1473.64006305802
0.258,1473.6409020778
0.2585,1473.64173709745
0.259,1473.64256813023
0.2595,1473.64339518939
0.26,1473.64421828817
0.2605,1473.64503743979
0.261,1473.64585265746
0.2615,1473.64666395436
0.262,1473.64747134368
0.2625,1473.64827483858
0.263,1473.64907445219
0.2635,1473.64987019766
0.264,1473.65066208808
0.2645,1473.65145013656
0.265,1473.65223435616
0.2655,1473.65301475994
0.266,1473.65379136095
0.2665,1473.65456417219
0.267,1473.65533320667
0.2675,1473.65609847736
0.268,1473.65685999723
0.2685,1473.65761777921
0.269,1473.65837183621
0.2695,1473.65912218114
0.27,1473.65986882686
0.2705,1473.66061178622
0.271,1473.66135107206
0.2715,1473.66208669718
0.272,1473.66281867437
0.2725,1473.66354701638
0.273,1473.66427173594
0.2735,1473.66499284578
0.274,1473.66571035858
0.2745,1473.66642428699
0.275,1473.66713464367
0.2755,1473.66784144122
0.276,1473.66854469224
0.2765,1473.66924440928
0.277,1473.66994060488
0.2775,1473.67063329155
0.278,1473.67132248179
0.2785,1473.67200818804
0.279,1473.67269042274
0.2795,1473.67336919829
0.28,1473.67404452708
0.2805,1473.67471642145
0.281,1473.67538489373
0.2815,1473.67604995621
0.282,1473.67671162115
0.2825,1473.67736990081
0.283,1473.67802480739
0.2835,1473.67867635306
0.284,1473.67932455
0.2845,1473.67996941032
0.285,1473.68061094612
0.2855,1473.68124916946
0.286,1473.6818840924
0.2865,1473.68251572692
0.287,1473.68314408502
0.2875,1473.68376917865
0.288,1473.68439101972
0.2885,1473.68500962012
0.289,1473.68562499173
0.2895,1473.68623714635
0.29,1473.6868460958
0.2905,1473.68745185185
0.291,1473.68805442623
0.2915,1473.68865383065
0.292,1473.68925007679
0.2925,1473.6898431763
0.293,1473.69043314079
0.2935,1473.69101998184
0.294,1473.69160371102
0.2945,1473.69218433985
0.295,1473.6927618798
0.2955,1473.69333634236
0.296,1473.69390773893
0.2965,1473.69447608093
0.297,1473.69504137971
0.2975,1473.69560364662
0.298,1473.69616289295
0.2985,1473.69671912997
0.299,1473.69727236892
0.2995,1473.69782262102
0.3,1473.69836989743
0.3005,1473.69891420929
0.301,1473.69945556772
0.3015,1473.6999939838
0.302,1473.70052946858
0.3025,1473.70106203306
0.303,1473.70159168823
0.3035,1473.70211844505
0.304,1473.70264231443
0.3045,1473.70316330724
0.305,1473.70368143436
0.3055,1473.7041967066
0.306,1473.70470913474
0.3065,1473.70521872955
0.307,1473.70572550176
0.3075,1473.70622946203
0.308,1473.70673062105
0.3085,1473.70722898944
0.309,1473.70772457778
0.3095,1473.70821739665
0.31,1473.70870745657
0.3105,1473.70919476804
0.311,1473.70967934152
0.3115,1473.71016118745
0.312,1473.71064031622
0.3125,1473.71111673821
0.313,1473.71159046373
0.3135,1473.71206150311
0.314,1473.7125298666
0.3145,1473.71299556446
0.315,1473.71345860687
0.3155,1473.71391900401
0.316,1473.71437676602
0.3165,1473.71483190302
0.317,1473.71528442507
0.3175,1473.71573434222
0.318,1473.71618166448
0.3185,1473.71662640182
0.319,1473.71706856421
0.3195,1473.71750816153
0.32,1473.71794520368
0.3205,1473.71837970051
0.321,1473.71881166184
0.3215,1473.71924109745
0.322,1473.71966801709
0.3225,1473.72009243049
0.323,1473.72051434733
0.3235,1473.72093377727
0.324,1473.72135072993
0.3245,1473.72176521491
0.325,1473.72217724177
0.3255,1473.72258682004
0.326,1473.72299395921
0.3265,1473.72339866876
0.327,1473.7238009581
0.3275,1473.72420083666
0.328,1473.72459831379
0.3285,1473.72499339884
0.329,1473.72538610112
0.3295,1473.72577642989
0.33,1473.72616439441
0.3305,1473.72655000389
0.331,1473.7269332675
0.3315,1473.72731419441
0.332,1473.72769279373
0.3325,1473.72806907454
0.333,1473.7284430459
0.3335,1473.72881471685
0.334,1473.72918409637
0.3345,1473.72955119343
0.335,1473.72991601696
0.3355,1473.73027857586
0.336,1473.73063887901
0.3365,1473.73099693524
0.337,1473.73135275336
0.3375,1473.73170634216
0.338,1473.73205771038
0.3385,1473.73240686675
0.339,1473.73275381994
0.3395,1473.73309857861
0.34,1473.7334411514
0.3405,1473.73378154689
0.341,1473.73411977366
0.3415,1473.73445584024
0.342,1473.73478975514
0.3425,1473.73512152683
0.343,1473.73545116377
0.3435,1473.73577867435
0.344,1473.73610406699
0.3445,1473.73642735002
0.345,1473.73674853178
0.3455,1473.73706762057
0.346,1473.73738462465
0.3465,1473.73769955226
0.347,1473.73801241162
0.3475,1473.73832321089
0.348,1473.73863195824
0.3485,1473.73893866178
0.349,1473.73924332961
0.3495,1473.73954596979
0.35,1473.73984659036
0.3505,1473.74014519931
0.351,1473.74044180463
0.3515,1473.74073641427
0.352,1473.74102903614
0.3525,1473.74131967814
0.353,1473.74160834813
0.3535,1473.74189505394
0.354,1473.74217980337
0.3545,1473.74246260421
0.355,1473.74274346421
0.3555,1473.74302239107
0.356,1473.74329939251
0.3565,1473.74357447618
0.357,1473.74384764971
0.3575,1473.74411892073
0.358,1473.7443882968
0.3585,1473.74465578549
0.359,1473.74492139431
0.3595,1473.74518513077
0.36,1473.74544700234
0.3605,1473.74570701646
0.361,1473.74596518055
0.3615,1473.74622150199
0.362,1473.74647598815
0.3625,1473.74672864637
0.363,1473.74697948394
0.3635,1473.74722850816
0.364,1473.74747572627
0.3645,1473.74772114551
0.365,1473.74796477306
0.3655,1473.74820661612
0.366,1473.74844668182
0.3665,1473.74868497728
0.367,1473.74892150961
0.3675,1473.74915628586
0.368,1473.74938931308
0.3685,1473.74962059829
0.369,1473.74985014847
0.3695,1473.7500779706
0.37,1473.7503040716
0.3705,1473.75052845839
0.371,1473.75075113785
0.3715,1473.75097211685
0.372,1473.75119140223
0.3725,1473.75140900078
0.373,1473.75162491929
0.3735,1473.75183916454
0.374,1473.75205174323
0.3745,1473.7522626621
0.375,1473.75247192781
0.3755,1473.75267954703
0.376,1473.75288552638
0.3765,1473.75308987249
0.377,1473.75329259192
0.3775,1473.75349369125
0.378,1473.753693177
0.3785,1473.75389105568
0.379,1473.75408733378
0.3795,1473.75428201776
0.38,1473.75447511405
0.3805,1473.75466662907
0.381,1473.75485656921
0.3815,1473.75504494082
0.382,1473.75523175025
0.3825,1473.75541700381
0.383,1473.75560070781
0.3835,1473.75578286849
0.384,1473.7559634921
0.3845,1473.75614258488
0.385,1473.75632015302
0.3855,1473.75649620268
0.386,1473.75667074002
0.3865,1473.75684377117
0.387,1473.75701530222
0.3875,1473.75718533927
0.388,1473.75735388836
0.3885,1473.75752095554
0.389,1473.75768654681
0.3895,1473.75785066816
0.39,1473.75801332556
0.3905,1473.75817452495
0.391,1473.75833427225
0.3915,1473.75849257336
0.392,1473.75864943416
0.3925,1473.75880486049
0.393,1473.75895885819
0.3935,1473.75911143307
0.394,1473.7592625909
0.3945,1473.75941233747
0.395,1473.7595606785
0.3955,1473.75970761973
0.396,1473.75985316684
0.3965,1473.75999732551
0.397,1473.7601401014
0.3975,1473.76028150015
0.398,1473.76042152736
0.3985,1473.76056018862
0.399,1473.7606974895
0.3995,1473.76083343555
0.4,1473.76096803229
0.4005,1473.76110128524
0.401,1473.76123319987
0.4015,1473.76136378164
0.402,1473.76149303601
0.4025,1473.76162096838
0.403,1473.76174758415
0.4035,1473.76187288872
0.404,1473.76199688743
0.4045,1473.76211958562
0.405,1473.76224098862
0.4055,1473.76236110171
0.406,1473.76247993017
0.4065,1473.76259747927
0.407,1473.76271375423
0.4075,1473.76282876027
0.408,1473.76294250259
0.4085,1473.76305498635
0.409,1473.76316621673
0.4095,1473.76327619885
0.41,1473.76338493782
0.4105,1473.76349243876
0.411,1473.76359870672
