"Physical Time: Physical Time (s)","Surface Average Rear Temp1 Monitor: Surface Average of Temperature (K)"
0.0005,573.000000000001
0.001,573.000000000077
0.0015,573.000000000876
0.002,573.000000005326
0.0025,573.000000022572
0.003,573.000000075113
0.0035,573.000000209977
0.004,573.000000514471
0.0045,573.000001136682
0.005,573.000002310471
0.0055,573.000004384209
0.006,573.000007852245
0.0065,573.000013387618
0.007,573.000021874525
0.0075,573.00003443897
0.008,573.000052476122
0.0085,573.000077673095
0.009,573.000112026348
0.00950000000000001,573.000157851805
0.01,573.00021778981
0.0105,573.000294801947
0.011,573.000392161574
0.0115,573.000513437974
0.012,573.000662474721
0.0125,573.000843362985
0.013,573.001060410591
0.0135,573.001318107686
0.014,573.001621089921
0.0145,573.0019741
0.015,573.002381948429
0.0155,573.002849474243
0.016,573.003381506388
0.0165,573.00398282637
0.017,573.004658132696
0.0175,573.005412007521
0.018,573.006248885842
0.0185,573.0071730332
0.019,573.00818849728
0.0195,573.009299120068
0.02,573.010508498668
0.0205,573.01181997281
0.021,573.013236612568
0.0215,573.014761208588
0.022,573.016396265018
0.0225,573.018143995056
0.023,573.020006318915
0.0235,573.021984864037
0.024,573.024080967334
0.0245,573.026295679262
0.025,573.028629769524
0.0255,573.031083734205
0.026,573.033657804133
0.0265,573.036351954296
0.027,573.03916591413
0.0275,573.042099178526
0.028,573.045151019376
0.0285,573.048320497556
0.029,573.05160647518
0.0295,573.055007628034
0.03,573.058522458072
0.0305,573.062149305887
0.031,573.065886363075
0.0315,573.069731684409
0.032,573.073683199783
0.0325,573.07773872585
0.033,573.081895977327
0.0335,573.086152577921
0.034,573.09050607085
0.0345,573.094953928937
0.035,573.099493564259
0.0355,573.104122337341
0.036,573.108837565881
0.0365,573.113636533015
0.037,573.118516495114
0.0375,573.123474689115
0.038,573.128508339402
0.0385,573.133614664234
0.039,573.13879088174
0.0395,573.144034215494
0.04,573.14934189966
0.0405,573.154711183768
0.041,573.160139337082
0.0415,573.16562365262
0.042,573.171161450814
0.0425,573.17675008284
0.043,573.182386933634
0.0435,573.188069424597
0.044,573.193795016025
0.0445,573.199561209268
0.045,573.205365548631
0.0455,573.211205623039
0.046,573.217079067483
0.0465,573.22298356425
0.047,573.228916843962
0.0475,573.234876686431
0.048,573.240860921346
0.0485,573.246867428801
0.049,573.252894139682
0.0495,573.258939035911
0.05,573.265000150573
0.0505,573.271075567929
0.051,573.277163423323
0.0515,573.283261902988
0.052,573.289369243775
0.0525,573.295483732797
0.053,573.301603706999
0.0535,573.30772755267
0.054,573.313853704889
0.0545,573.319980646925
0.055,573.326106909591
0.0555,573.332231070547
0.056,573.338351753584
0.0565,573.344467627859
0.057,573.350577407115
0.0575,573.356679848874
0.058,573.362773753609
0.0585,573.368857963902
0.059,573.37493136359
0.0595,573.380992876898
0.06,573.387041467565
0.0605,573.393076137973
0.061,573.399095928258
0.0615,573.405099915437
0.062,573.411087212524
0.0625,573.417056967658
0.063,573.423008363228
0.0635,573.428940615005
0.064,573.43485297129
0.0645,573.44074471206
0.065,573.446615148124
0.0655,573.4524636203
0.066,573.458289498585
0.0665,573.464092181357
0.067,573.469871094572
0.0675,573.475625690983
0.068,573.481355449371
0.0685,573.487059873788
0.069,573.492738492817
0.0695,573.498390858839
0.07,573.504016108697
0.0705,573.509614338076
0.071,573.515185169524
0.0715000000000001,573.520728223712
0.0720000000000001,573.526243148433
0.0725000000000001,573.531729616672
0.0730000000000001,573.537187323551
0.0735000000000001,573.542615984331
0.0740000000000001,573.548015333107
0.0745000000000001,573.553385121864
0.0750000000000001,573.558725119713
0.0755000000000001,573.56403511222
0.0760000000000001,573.569314900811
0.0765000000000001,573.574564302188
0.0770000000000001,573.579783147799
0.0775000000000001,573.584971283312
0.0780000000000001,573.590128568118
0.0785000000000001,573.595254874845
0.0790000000000001,573.600350088892
0.0795000000000001,573.605414107974
0.0800000000000001,573.610446841686
0.0805000000000001,573.615448211073
0.0810000000000001,573.620418148222
0.0815000000000001,573.625356595854
0.0820000000000001,573.630263506944
0.0825000000000001,573.635138844339
0.0830000000000001,573.639982580394
0.0835000000000001,573.644794696616
0.0840000000000001,573.649575183323
0.0845000000000001,573.654324039307
0.0850000000000001,573.659041271514
0.0855000000000001,573.663726894729
0.0860000000000001,573.668380931272
0.0865000000000001,573.673003410702
0.0870000000000001,573.677594369537
0.0875000000000001,573.682153850971
0.0880000000000001,573.686681904609
0.0885000000000001,573.691178586209
0.0890000000000001,573.695643957427
0.0895000000000001,573.700078085577
0.0900000000000001,573.704481043392
0.0905000000000001,573.708852908797
0.0910000000000001,573.713193764691
0.0915000000000001,573.717503698726
0.0920000000000001,573.721782803109
0.0925000000000001,573.726031174393
0.0930000000000001,573.730248913289
0.0935000000000001,573.734436124476
0.0940000000000001,573.738592916421
0.0945000000000001,573.742719401201
0.0950000000000001,573.746815694336
0.0955000000000001,573.750881914624
0.0960000000000001,573.754918183983
0.0965000000000001,573.758924627295
0.0970000000000001,573.762901372263
0.0975000000000001,573.766848549261
0.0980000000000001,573.770766291203
0.0985000000000001,573.774654733402
0.0990000000000001,573.778514013448
0.0995000000000001,573.782344271076
0.1,573.786145648054
0.1005,573.789918288057
0.101,573.793662336564
0.1015,573.797377940742
0.102,573.801065249347
0.1025,573.80472441262
0.103,573.808355582189
0.1035,573.811958910978
0.104,573.815534553115
0.1045,573.819082663843
0.105,573.822603399437
0.1055,573.826096917124
0.106,573.829563375002
0.1065,573.833002931966
0.107,573.836415747636
0.1075,573.839801982285
0.108,573.843161796773
0.1085,573.846495352481
0.109,573.84980281125
0.1095,573.853084335319
0.11,573.856340087265
0.1105,573.859570229956
0.111,573.862774926484
0.1115,573.865954340126
0.112,573.869108634284
0.1125,573.872237972447
0.113,573.875342518136
0.1135,573.878422434865
0.114,573.881477886102
0.1145,573.884509035216
0.115,573.887516045455
0.1155,573.890499079891
0.116,573.8934583014
0.1165,573.896393872616
0.117,573.899305955904
0.1175,573.902194713324
0.118,573.905060306605
0.1185,573.907902897116
0.119,573.910722645832
0.1195,573.913519713316
0.12,573.916294259685
0.1205,573.919046444593
0.121,573.921776427204
0.1215,573.924484366169
0.122,573.927170419608
0.1225,573.929834745089
0.123,573.932477499603
0.1235,573.935098839556
0.124,573.937698920743
0.1245,573.940277898336
0.125,573.942835926865
0.1255,573.945373160206
0.126,573.947889751564
0.1265,573.95038585346
0.127,573.952861617724
0.1275,573.955317195471
0.128,573.957752737103
0.1285,573.960168392286
0.129,573.962564309951
0.1295,573.964940638275
0.13,573.967297524677
0.1305,573.96963511581
0.131,573.971953557551
0.1315,573.974252994992
0.132,573.976533572439
0.1325,573.9787954334
0.133,573.981038720581
0.1335,573.983263575882
0.134,573.985470140387
0.1345,573.987658554366
0.135,573.989828957268
0.1355,573.991981487714
0.136,573.994116283498
0.1365,573.996233481581
0.137,573.99833321809
0.1375,574.000415628314
0.138,574.002480846703
0.1385,574.004529006867
0.139,574.00656024157
0.1395,574.008574682735
0.14,574.010572461438
0.1405,574.01255370791
0.141,574.014518551535
0.1415,574.016467120851
0.142,574.018399543549
0.1425,574.020315946475
0.143,574.022216455626
0.1435,574.024101196156
0.144,574.025970292373
0.1445,574.027823867744
0.145,574.029662044891
0.1455,574.031484945595
0.146,574.0332926908
0.1465,574.035085400609
0.147,574.036863194293
0.1475,574.038626190284
0.148,574.040374506186
0.1485,574.042108258772
0.149,574.043827563989
0.1495,574.045532536957
0.15,574.047223291977
0.1505,574.048899942528
0.151,574.050562601275
0.1515,574.052211380065
0.152,574.05384638994
0.1525,574.055467741133
0.153,574.057075543069
0.1535,574.058669904377
0.154,574.060250932887
0.1545,574.061818735634
0.155,574.063373418864
0.1555,574.064915088035
0.156,574.066443847822
0.1565,574.067959802121
0.157,574.069463054051
0.1575,574.07095370596
0.158,574.072431859429
0.1585,574.073897615273
0.159,574.075351073547
0.1595,574.076792333551
0.16,574.078221493832
0.1605,574.07963865219
0.161,574.08104390568
0.1615,574.082437350619
0.162,574.083819082584
0.1625,574.085189196426
0.163,574.086547786266
0.1635,574.087894945503
0.164,574.089230766815
0.1645,574.090555342171
0.165,574.091868762824
0.1655,574.093171119326
0.166,574.094462501524
0.1665,574.09574299857
0.167,574.097012698924
0.1675,574.098271690354
0.168,574.099520059949
0.1685,574.100757894115
0.169,574.101985278585
0.1695,574.103202298419
0.17,574.104409038012
0.1705,574.105605581097
0.171,574.106792010749
0.1715,574.10796840939
0.172,574.109134858792
0.1725,574.110291440084
0.173,574.111438233755
0.1735,574.112575319656
0.174,574.113702777009
0.1745,574.114820684408
0.175,574.115929119825
0.1755,574.117028160612
0.176,574.118117883508
0.1765,574.119198364642
0.177,574.120269679538
0.1775,574.121331903118
0.178,574.122385109708
0.1785,574.123429373041
0.179,574.124464766261
0.1795,574.125491361929
0.18,574.126509232025
0.1805,574.127518447954
0.181,574.128519080549
0.1815,574.129511200075
0.182,574.130494876236
0.1825,574.131470178174
0.183,574.132437174477
0.1835,574.133395933184
0.184,574.134346521785
0.1845,574.135289007228
0.185,574.136223455922
0.1855,574.137149933741
0.186,574.138068506029
0.1865,574.138979237604
0.187,574.139882192759
0.1875,574.140777435271
0.188,574.141665028399
0.1885,574.142545034893
0.189,574.143417516995
0.1895,574.144282536446
0.19,574.145140154484
0.1905,574.145990431855
0.191,574.146833428809
0.1915,574.147669205112
0.192,574.148497820043
0.1925,574.149319332402
0.193,574.150133800511
0.1935,574.15094128222
0.194,574.151741834908
0.1945,574.152534940205
0.195,574.153321318222
0.1955,574.154101019001
0.196,574.154874071405
0.1965,574.15564051349
0.197,574.15640038991
0.1975,574.157153748708
0.198,574.157900639562
0.1985,574.158641112898
0.199,574.159375219434
0.1995,574.160103009936
0.2,574.160824535079
0.2005,574.161539845356
0.201,574.162248991027
0.2015,574.162952022083
0.202,574.163648988213
0.2025,574.164339938792
0.203,574.165024922862
0.2035,574.165703989127
0.204,574.166377185938
0.2045,574.167044561296
0.205,574.167706162843
0.2055,574.16836203786
0.206,574.16901223327
0.2065,574.169656795627
0.207,574.17029577113
0.2075,574.170929205611
0.208,574.171557144542
0.2085,574.172179633037
0.209,574.172796715847
0.2095,574.17340843737
0.21,574.174014841647
0.2105,574.174615972366
0.211,574.175211872862
0.2115,574.175802586123
0.212,574.176388154789
0.2125,574.176968621156
0.213,574.177544027177
0.2135,574.178114414463
0.214,574.178679824292
0.2145,574.179240297602
0.215,574.179795875001
0.2155,574.180346596766
0.216,574.180892502845
0.2165,574.181433632863
0.217,574.181970026118
0.2175,574.182501721592
0.218,574.183028757945
0.2185,574.183551173523
0.219,574.18406900636
0.2195,574.184582294176
0.22,574.185091074386
0.2205,574.185595384095
0.221,574.18609526011
0.2215,574.186590738931
0.222,574.187081856762
0.2225,574.187568649511
0.223,574.188051152792
0.2235,574.188529401925
0.224,574.189003431941
0.2245,574.189473277587
0.225,574.18993897332
0.2255,574.19040055332
0.226,574.190858051483
0.2265,574.191311501426
0.227,574.191760936494
0.2275,574.192206389756
0.228,574.19264789401
0.2285,574.193085481784
0.229,574.19351918534
0.2295,574.193949036675
0.23,574.194375067522
0.2305,574.194797309355
0.231,574.19521579339
0.2315,574.195630550582
0.232,574.196041611638
0.2325,574.196449007008
0.233,574.196852766895
0.2335,574.197252921251
0.234,574.197649499783
0.2345,574.198042531955
0.235,574.198432046985
0.2355,574.198818073856
0.236,574.199200641309
0.2365,574.19957977785
0.237,574.199955511749
0.2375,574.200327871047
0.238,574.200696883551
0.2385,574.20106257684
0.239,574.201424978268
0.2395,574.201784114962
0.24,574.202140013826
0.2405,574.202492701544
0.241,574.202842204578
0.2415,574.203188549176
0.242,574.203531761366
0.2425,574.203871866965
0.243,574.204208891575
0.2435,574.204542860589
0.244,574.204873799192
0.2445,574.205201732358
0.245,574.205526684859
0.2455,574.205848681262
0.246,574.206167745931
0.2465,574.206483903031
0.247,574.206797176526
0.2475,574.207107590184
0.248,574.207415167578
0.2485,574.207719932086
0.249,574.208021906893
0.2495,574.208321114995
0.25,574.208617579196
0.2505,574.208911322115
0.251,574.209202366182
0.2515,574.209490733646
0.252,574.209776446568
0.2525,574.210059526832
0.253,574.210339996138
0.2535,574.210617876011
0.254,574.210893187794
0.2545,574.21116595266
0.255,574.211436191603
0.2555,574.211703925445
0.256,574.211969174839
0.2565,574.212231960265
0.257,574.212492302035
0.2575,574.212750220296
0.258,574.213005735026
0.2585,574.213258866039
0.259,574.213509632987
0.2595,574.21375805536
0.26,574.214004152487
0.2605,574.214247943538
0.261,574.214489447524
0.2615,574.214728683302
0.262,574.21496566957
0.2625,574.215200424875
0.263,574.215432967611
0.2635,574.215663316018
0.264,574.215891488188
0.2645,574.216117502064
0.265,574.21634137544
0.2655,574.216563125963
0.266,574.216782771138
0.2665,574.217000328321
0.267,574.217215814729
0.2675,574.217429247434
0.268,574.21764064337
0.2685,574.21785001933
0.269,574.218057391969
0.2695,574.218262777805
0.27,574.218466193218
0.2705,574.218667654457
0.271,574.218867177635
0.2715,574.21906477873
0.272,574.219260473592
0.2725,574.219454277938
0.273,574.219646207356
0.2735,574.219836277308
0.274,574.220024503124
0.2745,574.220210900011
0.275,574.220395483051
0.2755,574.220578267199
0.276,574.22075926729
0.2765,574.220938498034
0.277,574.22111597402
0.2775,574.22129170972
0.278,574.221465719483
0.2785,574.221638017542
0.279,574.221808618011
0.2795,574.22197753489
0.28,574.22214478206
0.2805,574.222310373292
0.281,574.222474322241
0.2815,574.222636642449
0.282,574.222797347349
0.2825,574.222956450259
0.283,574.223113964393
0.2835,574.22326990285
0.284,574.223424278626
0.2845,574.223577104607
0.285,574.223728393574
0.2855,574.223878158202
0.286,574.224026411063
0.2865,574.224173164623
0.287,574.224318431248
0.2875,574.2244622232
0.288,574.22460455264
0.2885,574.224745431631
0.289,574.224884872134
0.2895,574.225022886012
0.29,574.225159485032
0.2905,574.225294680861
0.291,574.225428485074
0.2915,574.225560909146
0.292,574.22569196446
0.2925,574.225821662306
0.293,574.225950013878
0.2935,574.226077030282
0.294,574.226202722527
0.2945,574.226327101537
0.295,574.226450178141
0.2955,574.226571963082
0.296,574.226692467014
0.2965,574.226811700502
0.297,574.226929674024
0.2975,574.227046397973
0.298,574.227161882655
0.2985,574.227276138293
0.299,574.227389175022
0.2995,574.227501002898
0.3,574.227611631891
0.3005,574.22772107189
0.301,574.227829332702
0.3015,574.227936424055
0.302,574.228042355592
0.3025,574.228147136883
0.303,574.228250777415
0.3035,574.228353286597
0.304,574.228454673762
0.3045,574.228554948166
0.305,574.228654118986
0.3055,574.228752195326
0.306,574.228849186216
0.3065,574.228945100608
0.307,574.229039947384
0.3075,574.229133735349
0.308,574.229226473238
0.3085,574.229318169714
0.309,574.229408833367
0.3095,574.229498472719
0.31,574.229587096218
0.3105,574.229674712245
0.311,574.229761329112
0.3115,574.22984695506
0.312,574.229931598265
0.3125,574.230015266834
0.313,574.230097968809
0.3135,574.230179712163
0.314,574.230260504804
0.3145,574.230340354577
0.315,574.23041926926
0.3155,574.230497256568
0.316,574.230574324151
0.3165,574.230650479599
0.317,574.230725730436
0.3175,574.230800084125
0.318,574.23087354807
0.3185,574.23094612961
0.319,574.231017836027
0.3195,574.23108867454
0.32,574.231158652312
0.3205,574.231227776442
0.321,574.231296053975
0.3215,574.231363491897
0.322,574.231430097135
0.3225,574.23149587656
0.323,574.231560836985
0.3235,574.231624985168
0.324,574.231688327813
0.3245,574.231750871565
0.325,574.231812623016
0.3255,574.231873588706
0.326,574.231933775116
0.3265,574.23199318868
0.327,574.232051835772
0.3275,574.232109722718
0.328,574.232166855792
0.3285,574.232223241215
0.329,574.232278885155
0.3295,574.232333793732
0.33,574.232387973016
0.3305,574.232441429022
0.331,574.232494167723
0.3315,574.232546195035
0.332,574.232597516832
0.3325,574.232648138935
0.333,574.232698067118
0.3335,574.232747307109
0.334,574.232795864587
0.3345,574.232843745186
0.335,574.232890954491
0.3355,574.232937498044
0.336,574.232983060735
0.3365,574.233028016807
0.337,574.233072368626
0.3375,574.233116107848
0.338,574.233159230849
0.3385,574.233201737544
0.339,574.233243629789
0.3395,574.233284910491
0.34,574.23332558315
0.3405,574.23336565162
0.341,574.233405119979
0.3415,574.23344399245
0.342,574.233482273356
0.3425,574.233519967085
0.343,574.233557078069
0.3435,574.233593610766
0.344,574.233629569649
0.3445,574.233664959196
0.345,574.233699783884
0.3455,574.23373404818
0.346,574.23376775654
0.3465,574.233800913402
0.347,574.233833523186
0.3475,574.23386559029
0.348,574.233897119087
0.3485,574.233928113928
0.349,574.233958579133
0.3495,574.233988518999
0.35,574.234017937792
0.3505,574.234046839751
0.351,574.234075229083
0.3515,574.234103109968
0.352,574.234130486554
0.3525,574.23415736296
0.353,574.234183743274
0.3535,574.234209631554
0.354,574.234235031826
0.3545,574.234259948086
0.355,574.234284384301
0.3555,574.234308344405
0.356,574.234331832303
0.3565,574.23435485187
0.357,574.234377406948
0.3575,574.234399501352
0.358,574.234421138866
0.3585,574.234442323242
0.359,574.234463058206
0.3595,574.23448334745
0.36,574.23450319464
0.3605,574.234522603411
0.361,574.234541577369
0.3615,574.234560120092
0.362,574.234578235128
0.3625,574.234595925997
0.363,574.234613196191
0.3635,574.234630049173
0.364,574.234646488378
0.3645,574.234662517213
0.365,574.234678139059
0.3655,574.234693357269
0.366,574.234708175165
0.3665,574.234722596049
0.367,574.234736623189
0.3675,574.234750259831
0.368,574.234763509193
0.3685,574.234776374466
0.369,574.234788858817
0.3695,574.234800965385
0.37,574.234812697285
0.3705,574.234824057605
0.371,574.234835049409
0.3715,574.234845675735
0.372,574.234855939597
0.3725,574.234865843983
0.373,574.234875391857
0.3735,574.234884586161
0.374,574.234893429809
0.3745,574.234901925694
0.375,574.234910076683
0.3755,574.234917885622
0.376,574.234925355332
0.3765,574.23493248861
0.377,574.234939288233
0.3775,574.234945756952
0.378,574.234951897497
0.3785,574.234957712575
0.379,574.234963204873
0.3795,574.234968377051
0.38,574.234973231751
0.3805,574.234977771594
0.381,574.234981999176
0.3815,574.234985917075
0.382,574.234989527844
0.3825,574.234992834019
0.383,574.234995838113
0.3835,574.234998542618
0.384,574.235000950007
0.3845,574.235003062732
0.385,574.235004883223
0.3855,574.235006413894
0.386,574.235007657135
0.3865,574.235008615318
0.387,574.235009290798
0.3875,574.235009685905
0.388,574.235009802955
0.3885,574.235009644243
0.389,574.235009212044
0.3895,574.235008508616
0.39,574.235007536197
0.3905,574.235006297008
0.391,574.235004793251
0.3915,574.23500302711
0.392,574.235001000751
0.3925,574.234998716322
0.393,574.234996175953
0.3935,574.234993381757
0.394,574.23499033583
0.3945,574.23498704025
0.395,574.234983497079
0.3955,574.234979708358
0.396,574.234975676118
0.3965,574.234971402368
0.397,574.234966889103
0.3975,574.234962138299
0.398,574.234957151919
0.3985,574.234951931907
0.399,574.234946480193
0.3995,574.234940798691
0.4,574.234934889297
0.4005,574.234928753895
0.401,574.234922394349
0.4015,574.234915812512
0.402,574.23490901022
0.4025,574.234901989293
0.403,574.234894751537
0.4035,574.234887298742
0.404,574.234879632686
0.4045,574.234871755129
0.405,574.23486366782
0.4055,574.23485537249
0.406,574.234846870858
0.4065,574.234838164628
0.407,574.234829255491
0.4075,574.234820145122
0.408,574.234810835186
0.4085,574.234801327329
0.409,574.234791623188
0.4095,574.234781724385
0.41,574.234771632529
0.4105,574.234761349212
