"Physical Time: Physical Time (s)","Surface Average Rear Temp1 Monitor: Surface Average of Temperature (K)"
0.0005,1473
0.001,1473
0.0015,1473
0.002,1473
0.0025,1473.00000000001
0.003,1473
0.0035,1472.99999999996
0.004,1472.99999999985
0.0045,1472.99999999963
0.005,1472.99999999929
0.0055,1472.99999999884
0.006,1472.99999999838
0.0065,1472.99999999817
0.007,1472.99999999867
0.0075,1473.00000000065
0.008,1473.00000000534
0.0085,1473.00000001455
0.009,1473.00000003083
0.00950000000000001,1473.00000005772
0.01,1473.00000009996
0.0105,1473.00000016373
0.011,1473.000000257
0.0115,1473.00000038985
0.012,1473.00000057478
0.0125,1473.00000082717
0.013,1473.00000116561
0.0135,1473.0000016124
0.014,1473.00000219394
0.0145,1473.00000294122
0.015,1473.00000389027
0.0155,1473.00000508265
0.016,1473.00000656589
0.0165,1473.00000839396
0.017,1473.00001062775
0.0175,1473.00001333545
0.018,1473.00001659302
0.0185,1473.00002048454
0.019,1473.00002510258
0.0195,1473.00003054856
0.02,1473.00003693301
0.0205,1473.00004437584
0.021,1473.00005300657
0.0215,1473.00006296451
0.022,1473.00007439886
0.0225,1473.00008746886
0.023,1473.0001023444
0.0235,1473.00011920396
0.024,1473.00013823708
0.0245,1473.00015964308
0.025,1473.0001836311
0.0255,1473.00021041985
0.026,1473.0002402375
0.0265,1473.00027332136
0.027,1473.00030991765
0.0275,1473.00035028114
0.028,1473.00039467482
0.0285,1473.00044336951
0.029,1473.00049664343
0.0295,1473.00055478178
0.03,1473.0006180763
0.0305,1473.00068682474
0.031,1473.00076133039
0.0315,1473.00084190156
0.032,1473.00092885107
0.0325,1473.00102249568
0.033,1473.00112315557
0.0335,1473.0012311538
0.034,1473.00134681573
0.0345,1473.00147046847
0.035,1473.00160244034
0.0355,1473.00174306032
0.036,1473.00189265751
0.0365,1473.00205156057
0.037,1473.00222009723
0.0375,1473.00239859371
0.038,1473.00258737428
0.0385,1473.00278676074
0.039,1473.00299707191
0.0395,1473.0032186232
0.04,1473.00345172617
0.0405,1473.00369668804
0.041,1473.00395381134
0.0415,1473.00422339348
0.042,1473.00450572635
0.0425,1473.004801096
0.043,1473.00510978229
0.0435,1473.00543205855
0.044,1473.00576819127
0.0445,1473.00611843986
0.045,1473.00648305635
0.0455,1473.00686228517
0.046,1473.0072563629
0.0465,1473.00766551808
0.047,1473.00808997103
0.0475,1473.00852993369
0.048,1473.00898560944
0.0485,1473.00945719299
0.049,1473.00994487027
0.0495,1473.01044881834
0.05,1473.01096920527
0.0505,1473.01150619015
0.051,1473.01205992297
0.0515,1473.01263054463
0.052,1473.01321818691
0.0525,1473.01382297246
0.053,1473.01444501483
0.0535,1473.01508441847
0.054,1473.01574127878
0.0545,1473.01641568215
0.055,1473.01710770603
0.0555,1473.01781741898
0.056,1473.01854488076
0.0565,1473.0192901424
0.057,1473.02005324634
0.0575,1473.02083422649
0.058,1473.02163310836
0.0585,1473.02244990919
0.059,1473.02328463805
0.0595,1473.02413729602
0.06,1473.02500787626
0.0605,1473.02589636422
0.061,1473.02680273775
0.0615,1473.02772696728
0.062,1473.02866901594
0.0625,1473.02962883976
0.063,1473.0306063878
0.0635,1473.03160160235
0.064,1473.03261441907
0.0645,1473.03364476716
0.065,1473.03469256957
0.0655,1473.03575774312
0.066,1473.03684019871
0.0665,1473.03793984149
0.067,1473.03905657103
0.0675,1473.04019028149
0.068,1473.04134086181
0.0685,1473.04250819586
0.069,1473.04369216264
0.0695,1473.04489263645
0.07,1473.04610948704
0.0705,1473.04734257982
0.071,1473.04859177599
0.0715000000000001,1473.04985693272
0.0720000000000001,1473.05113790334
0.0725000000000001,1473.05243453747
0.0730000000000001,1473.05374668121
0.0735000000000001,1473.05507417728
0.0740000000000001,1473.0564168652
0.0745000000000001,1473.05777458141
0.0750000000000001,1473.05914715949
0.0755000000000001,1473.06053443022
0.0760000000000001,1473.0619362218
0.0765000000000001,1473.06335235999
0.0770000000000001,1473.0647826682
0.0775000000000001,1473.06622696769
0.0780000000000001,1473.06768507768
0.0785000000000001,1473.06915681549
0.0790000000000001,1473.07064199668
0.0795000000000001,1473.07214043515
0.0800000000000001,1473.07365194329
0.0805000000000001,1473.07517633213
0.0810000000000001,1473.07671341139
0.0815000000000001,1473.07826298966
0.0820000000000001,1473.0798248745
0.0825000000000001,1473.08139887253
0.0830000000000001,1473.08298478955
0.0835000000000001,1473.08458243066
0.0840000000000001,1473.08619160036
0.0845000000000001,1473.08781210261
0.0850000000000001,1473.08944374099
0.0855000000000001,1473.09108631875
0.0860000000000001,1473.09273963892
0.0865000000000001,1473.09440350439
0.0870000000000001,1473.09607771799
0.0875000000000001,1473.09776208261
0.0880000000000001,1473.09945640123
0.0885000000000001,1473.10116047703
0.0890000000000001,1473.10287411346
0.0895000000000001,1473.10459711429
0.0900000000000001,1473.10632928374
0.0905000000000001,1473.10807042647
0.0910000000000001,1473.10982034769
0.0915000000000001,1473.11157885324
0.0920000000000001,1473.1133457496
0.0925000000000001,1473.11512084399
0.0930000000000001,1473.1169039444
0.0935000000000001,1473.11869485966
0.0940000000000001,1473.12049339949
0.0945000000000001,1473.12229937455
0.0950000000000001,1473.12411259647
0.0955000000000001,1473.12593287791
0.0960000000000001,1473.12776003262
0.0965000000000001,1473.12959387543
0.0970000000000001,1473.13143422235
0.0975000000000001,1473.13328089058
0.0980000000000001,1473.13513369853
0.0985000000000001,1473.13699246587
0.0990000000000001,1473.13885701359
0.0995000000000001,1473.14072716397
0.1,1473.14260274066
0.1005,1473.14448356868
0.101,1473.14636947447
0.1015,1473.14826028587
0.102,1473.1501558322
0.1025,1473.15205594425
0.103,1473.15396045429
0.1035,1473.1558691961
0.104,1473.15778200503
0.1045,1473.15969871791
0.105,1473.16161917319
0.1055,1473.16354321086
0.106,1473.16547067251
0.1065,1473.16740140133
0.107,1473.1693352421
0.1075,1473.17127204125
0.108,1473.1732116468
0.1085,1473.17515390842
0.109,1473.17709855321
0.1095,1473.17904554351
0.11,1473.18099475701
0.1105,1473.18294605267
0.111,1473.18489928689
0.1115,1473.18685431733
0.112,1473.18881100366
0.1125,1473.19076920761
0.113,1473.19272879291
0.1135,1473.19468962515
0.114,1473.19665157175
0.1145,1473.19861450188
0.115,1473.20057828644
0.1155,1473.20254279806
0.116,1473.20450791103
0.1165,1473.20647350132
0.117,1473.20843944654
0.1175,1473.21040562598
0.118,1473.21237192055
0.1185,1473.21433821279
0.119,1473.21630438688
0.1195,1473.21827032857
0.12,1473.22023592526
0.1205,1473.22220106592
0.121,1473.22416564112
0.1215,1473.22612954299
0.122,1473.22809266525
0.1225,1473.23005490315
0.123,1473.23201615351
0.1235,1473.23397631468
0.124,1473.23593528654
0.1245,1473.23789297049
0.125,1473.23984926943
0.1255,1473.24180408776
0.126,1473.24375733135
0.1265,1473.24570890757
0.127,1473.24765872523
0.1275,1473.2496066946
0.128,1473.25155272738
0.1285,1473.25349673671
0.129,1473.25543863713
0.1295,1473.25737834458
0.13,1473.25931577642
0.1305,1473.26125085134
0.131,1473.26318348944
0.1315,1473.26511361214
0.132,1473.26704114223
0.1325,1473.2689660038
0.133,1473.27088812226
0.1335,1473.27280742435
0.134,1473.27472383805
0.1345,1473.27663729267
0.135,1473.27854771874
0.1355,1473.28045504807
0.136,1473.28235921369
0.1365,1473.28426014987
0.137,1473.28615779207
0.1375,1473.28805207698
0.138,1473.28994294244
0.1385,1473.2918303275
0.139,1473.29371417234
0.1395,1473.29559441831
0.14,1473.29747100789
0.1405,1473.29934388467
0.141,1473.30121299336
0.1415,1473.30307827976
0.142,1473.30493969077
0.1425,1473.30679717434
0.143,1473.3086506795
0.1435,1473.3105001563
0.144,1473.31234555584
0.1445,1473.31418683025
0.145,1473.31602393266
0.1455,1473.31785681719
0.146,1473.31968543894
0.1465,1473.32150975401
0.147,1473.32332971943
0.1475,1473.3251452932
0.148,1473.32695643425
0.1485,1473.32876310242
0.149,1473.33056525848
0.1495,1473.33236286409
0.15,1473.33415588181
0.1505,1473.33594427507
0.151,1473.33772800817
0.1515,1473.33950704626
0.152,1473.34128135534
0.1525,1473.34305090223
0.153,1473.3448156546
0.1535,1473.34657558089
0.154,1473.34833065037
0.1545,1473.35008083308
0.155,1473.35182609986
0.1555,1473.35356642229
0.156,1473.35530177273
0.1565,1473.35703212427
0.157,1473.35875745074
0.1575,1473.36047772669
0.158,1473.36219292741
0.1585,1473.36390302887
0.159,1473.36560800774
0.1595,1473.36730784137
0.16,1473.36900250781
0.1605,1473.37069198575
0.161,1473.37237625454
0.1615,1473.37405529419
0.162,1473.37572908534
0.1625,1473.37739760925
0.163,1473.37906084781
0.1635,1473.38071878352
0.164,1473.38237139947
0.1645,1473.38401867935
0.165,1473.38566060743
0.1655,1473.38729716856
0.166,1473.38892834814
0.1665,1473.39055413215
0.167,1473.39217450711
0.1675,1473.39378946006
0.168,1473.39539897859
0.1685,1473.39700305083
0.169,1473.39860166539
0.1695,1473.40019481142
0.17,1473.40178247854
0.1705,1473.40336465689
0.171,1473.40494133708
0.1715,1473.4065125102
0.172,1473.4080781678
0.1725,1473.40963830191
0.173,1473.411192905
0.1735,1473.41274197
0.174,1473.41428549025
0.1745,1473.41582345957
0.175,1473.41735587217
0.1755,1473.41888272268
0.176,1473.42040400617
0.1765,1473.42191971809
0.177,1473.4234298543
0.1775,1473.42493441104
0.178,1473.42643338495
0.1785,1473.42792677304
0.179,1473.42941457271
0.1795,1473.4308967817
0.18,1473.43237339813
0.1805,1473.43384442047
0.181,1473.43530984754
0.1815,1473.4367696785
0.182,1473.43822391284
0.1825,1473.4396725504
0.183,1473.44111559132
0.1835,1473.44255303609
0.184,1473.44398488548
0.1845,1473.4454111406
0.185,1473.44683180284
0.1855,1473.4482468739
0.186,1473.44965635578
0.1865,1473.45106025075
0.187,1473.45245856136
0.1875,1473.45385129046
0.188,1473.45523844116
0.1885,1473.45662001683
0.189,1473.45799602112
0.1895,1473.45936645791
0.19,1473.46073133136
0.1905,1473.46209064587
0.191,1473.46344440609
0.1915,1473.46479261688
0.192,1473.46613528338
0.1925,1473.46747241092
0.193,1473.46880400508
0.1935,1473.47013007165
0.194,1473.47145061666
0.1945,1473.47276564631
0.195,1473.47407516705
0.1955,1473.47537918551
0.196,1473.47667770854
0.1965,1473.47797074318
0.197,1473.47925829666
0.1975,1473.4805403764
0.198,1473.48181699001
0.1985,1473.48308814527
0.199,1473.48435385016
0.1995,1473.48561411282
0.2,1473.48686894157
0.2005,1473.48811834488
0.201,1473.4893623314
0.2015,1473.49060090994
0.202,1473.49183408946
0.2025,1473.49306187909
0.203,1473.49428428809
0.2035,1473.49550132589
0.204,1473.49671300204
0.2045,1473.49791932625
0.205,1473.49912030836
0.2055,1473.50031595835
0.206,1473.50150628634
0.2065,1473.50269130255
0.207,1473.50387101737
0.2075,1473.50504544128
0.208,1473.50621458488
0.2085,1473.50737845892
0.209,1473.50853707424
0.2095,1473.50969044179
0.21,1473.51083857264
0.2105,1473.51198147798
0.211,1473.51311916907
0.2115,1473.51425165731
0.212,1473.51537895418
0.2125,1473.51650107126
0.213,1473.51761802023
0.2135,1473.51872981285
0.214,1473.51983646098
0.2145,1473.52093797658
0.215,1473.52203437168
0.2155,1473.52312565838
0.216,1473.52421184891
0.2165,1473.52529295552
0.217,1473.52636899057
0.2175,1473.52743996651
0.218,1473.52850589582
0.2185,1473.52956679109
0.219,1473.53062266495
0.2195,1473.53167353013
0.22,1473.53271939938
0.2205,1473.53376028556
0.221,1473.53479620156
0.2215,1473.53582716034
0.222,1473.53685317492
0.2225,1473.53787425837
0.223,1473.53889042382
0.2235,1473.53990168445
0.224,1473.54090805348
0.2245,1473.5419095442
0.225,1473.54290616994
0.2255,1473.54389794406
0.226,1473.54488487999
0.2265,1473.54586699117
0.227,1473.54684429112
0.2275,1473.54781679337
0.228,1473.54878451149
0.2285,1473.54974745911
0.229,1473.55070564987
0.2295,1473.55165909745
0.23,1473.55260781557
0.2305,1473.55355181798
0.231,1473.55449111845
0.2315,1473.55542573078
0.232,1473.5563556688
0.2325,1473.55728094638
0.233,1473.55820157738
0.2335,1473.55911757573
0.234,1473.56002895533
0.2345,1473.56093573014
0.235,1473.56183791412
0.2355,1473.56273552127
0.236,1473.56362856557
0.2365,1473.56451706104
0.237,1473.56540102173
0.2375,1473.56628046167
0.238,1473.56715539492
0.2385,1473.56802583556
0.239,1473.56889179767
0.2395,1473.56975329534
0.24,1473.57061034267
0.2405,1473.57146295376
0.241,1473.57231114274
0.2415,1473.57315492372
0.242,1473.57399431083
0.2425,1473.5748293182
0.243,1473.57565995996
0.2435,1473.57648625025
0.244,1473.5773082032
0.2445,1473.57812583296
0.245,1473.57893915365
0.2455,1473.57974817942
0.246,1473.5805529244
0.2465,1473.58135340272
0.247,1473.58214962851
0.2475,1473.58294161589
0.248,1473.58372937898
0.2485,1473.5845129319
0.249,1473.58529228875
0.2495,1473.58606746364
0.25,1473.58683847065
0.2505,1473.58760532386
0.251,1473.58836803736
0.2515,1473.58912662521
0.252,1473.58988110146
0.2525,1473.59063148015
0.253,1473.59137777532
0.2535,1473.59212000099
0.254,1473.59285817117
0.2545,1473.59359229984
0.255,1473.59432240099
0.2555,1473.59504848858
0.256,1473.59577057656
0.2565,1473.59648867886
0.257,1473.59720280941
0.2575,1473.59791298211
0.258,1473.59861921083
0.2585,1473.59932150945
0.259,1473.60001989181
0.2595,1473.60071437175
0.26,1473.60140496307
0.2605,1473.60209167957
0.261,1473.60277453501
0.2615,1473.60345354315
0.262,1473.60412871772
0.2625,1473.60480007242
0.263,1473.60546762094
0.2635,1473.60613137696
0.264,1473.6067913541
0.2645,1473.60744756599
0.265,1473.60810002622
0.2655,1473.60874874838
0.266,1473.609393746
0.2665,1473.61003503261
0.267,1473.61067262171
0.2675,1473.61130652678
0.268,1473.61193676126
0.2685,1473.61256333859
0.269,1473.61318627214
0.2695,1473.61380557531
0.27,1473.61442126142
0.2705,1473.61503334381
0.271,1473.61564183576
0.2715,1473.61624675053
0.272,1473.61684810137
0.2725,1473.61744590147
0.273,1473.61804016402
0.2735,1473.61863090217
0.274,1473.61921812905
0.2745,1473.61980185773
0.275,1473.6203821013
0.2755,1473.62095887278
0.276,1473.62153218518
0.2765,1473.62210205147
0.277,1473.62266848461
0.2775,1473.62323149749
0.278,1473.62379110302
0.2785,1473.62434731404
0.279,1473.62490014338
0.2795,1473.62544960382
0.28,1473.62599570813
0.2805,1473.62653846904
0.281,1473.62707789924
0.2815,1473.6276140114
0.282,1473.62814681816
0.2825,1473.62867633211
0.283,1473.62920256583
0.2835,1473.62972553185
0.284,1473.63024524268
0.2845,1473.63076171079
0.285,1473.63127494863
0.2855,1473.63178496858
0.286,1473.63229178304
0.2865,1473.63279540434
0.287,1473.63329584479
0.2875,1473.63379311665
0.288,1473.63428723218
0.2885,1473.63477820358
0.289,1473.63526604302
0.2895,1473.63575076264
0.29,1473.63623237455
0.2905,1473.63671089082
0.291,1473.63718632348
0.2915,1473.63765868455
0.292,1473.63812798598
0.2925,1473.63859423971
0.293,1473.63905745765
0.2935,1473.63951765166
0.294,1473.63997483357
0.2945,1473.64042901518
0.295,1473.64088020826
0.2955,1473.64132842453
0.296,1473.64177367568
0.2965,1473.64221597337
0.297,1473.64265532923
0.2975,1473.64309175484
0.298,1473.64352526177
0.2985,1473.64395586153
0.299,1473.64438356559
0.2995,1473.64480838543
0.3,1473.64523033244
0.3005,1473.645649418
0.301,1473.64606565347
0.3015,1473.64647905015
0.302,1473.64688961931
0.3025,1473.64729737219
0.303,1473.64770232001
0.3035,1473.64810447391
0.304,1473.64850384505
0.3045,1473.64890044452
0.305,1473.64929428338
0.3055,1473.64968537266
0.306,1473.65007372335
0.3065,1473.65045934641
0.307,1473.65084225277
0.3075,1473.6512224533
0.308,1473.65159995887
0.3085,1473.65197478029
0.309,1473.65234692834
0.3095,1473.65271641377
0.31,1473.65308324729
0.3105,1473.65344743958
0.311,1473.65380900128
0.3115,1473.65416794299
0.312,1473.65452427529
0.3125,1473.65487800872
0.313,1473.65522915377
0.3135,1473.65557772091
0.314,1473.65592372057
0.3145,1473.65626716316
0.315,1473.65660805903
0.3155,1473.65694641851
0.316,1473.65728225189
0.3165,1473.65761556942
0.317,1473.65794638134
0.3175,1473.65827469783
0.318,1473.65860052905
0.3185,1473.6589238851
0.319,1473.65924477608
0.3195,1473.65956321204
0.32,1473.65987920299
0.3205,1473.6601927589
0.321,1473.66050388974
0.3215,1473.6608126054
0.322,1473.66111891578
0.3225,1473.6614228307
0.323,1473.66172435998
0.3235,1473.6620235134
0.324,1473.66232030069
0.3245,1473.66261473156
0.325,1473.66290681569
0.3255,1473.66319656272
0.326,1473.66348398224
0.3265,1473.66376908383
0.327,1473.66405187703
0.3275,1473.66433237134
0.328,1473.66461057623
0.3285,1473.66488650114
0.329,1473.66516015547
0.3295,1473.66543154859
0.33,1473.66570068984
0.3305,1473.66596758852
0.331,1473.6662322539
0.3315,1473.66649469521
0.332,1473.66675492166
0.3325,1473.66701294242
0.333,1473.66726876662
0.3335,1473.66752240338
0.334,1473.66777386175
0.3345,1473.66802315079
0.335,1473.66827027949
0.3355,1473.66851525683
0.336,1473.66875809175
0.3365,1473.66899879316
0.337,1473.66923736993
0.3375,1473.66947383091
0.338,1473.66970818491
0.3385,1473.66994044071
0.339,1473.67017060705
0.3395,1473.67039869265
0.34,1473.67062470619
0.3405,1473.67084865632
0.341,1473.67107055167
0.3415,1473.67129040081
0.342,1473.67150821231
0.3425,1473.67172399468
0.343,1473.67193775643
0.3435,1473.67214950601
0.344,1473.67235925185
0.3445,1473.67256700236
0.345,1473.67277276589
0.3455,1473.67297655078
0.346,1473.67317836534
0.3465,1473.67337821785
0.347,1473.67357611655
0.3475,1473.67377206964
0.348,1473.67396608531
0.3485,1473.67415817172
0.349,1473.67434833698
0.3495,1473.67453658919
0.35,1473.6747229364
0.3505,1473.67490738664
0.351,1473.67508994791
0.3515,1473.67527062819
0.352,1473.67544943541
0.3525,1473.67562637747
0.353,1473.67580146227
0.3535,1473.67597469765
0.354,1473.67614609143
0.3545,1473.6763156514
0.355,1473.67648338532
0.3555,1473.67664930092
0.356,1473.67681340591
0.3565,1473.67697570796
0.357,1473.6771362147
0.3575,1473.67729493377
0.358,1473.67745187273
0.3585,1473.67760703916
0.359,1473.67776044057
0.3595,1473.67791208446
0.36,1473.67806197831
0.3605,1473.67821012956
0.361,1473.67835654562
0.3615,1473.67850123387
0.362,1473.67864420168
0.3625,1473.67878545637
0.363,1473.67892500524
0.3635,1473.67906285556
0.364,1473.67919901458
0.3645,1473.67933348951
0.365,1473.67946628755
0.3655,1473.67959741585
0.366,1473.67972688155
0.3665,1473.67985469176
0.367,1473.67998085354
0.3675,1473.68010537395
0.368,1473.68022826002
0.3685,1473.68034951875
0.369,1473.68046915709
0.3695,1473.680587182
0.37,1473.6807036004
0.3705,1473.68081841915
0.371,1473.68093164514
0.3715,1473.6810432852
0.372,1473.68115334613
0.3725,1473.68126183472
0.373,1473.68136875772
0.3735,1473.68147412186
0.374,1473.68157793385
0.3745,1473.68168020037
0.375,1473.68178092805
0.3755,1473.68188012354
0.376,1473.68197779343
0.3765,1473.68207394429
0.377,1473.68216858267
0.3775,1473.68226171509
0.378,1473.68235334805
0.3785,1473.68244348802
0.379,1473.68253214145
0.3795,1473.68261931476
0.38,1473.68270501434
0.3805,1473.68278924656
0.381,1473.68287201778
0.3815,1473.6829533343
0.382,1473.68303320242
0.3825,1473.68311162843
0.383,1473.68318861855
0.3835,1473.68326417902
0.384,1473.68333831603
0.3845,1473.68341103575
0.385,1473.68348234433
0.3855,1473.6835522479
0.386,1473.68362075256
0.3865,1473.68368786438
0.387,1473.68375358941
0.3875,1473.68381793369
0.388,1473.68388090321
0.3885,1473.68394250396
0.389,1473.68400274189
0.3895,1473.68406162294
0.39,1473.68411915301
0.3905,1473.684175338
0.391,1473.68423018376
0.3915,1473.68428369614
0.392,1473.68433588095
0.3925,1473.68438674399
0.393,1473.68443629103
0.3935,1473.6844845278
0.394,1473.68453146005
0.3945,1473.68457709347
0.395,1473.68462143374
0.3955,1473.68466448652
0.396,1473.68470625743
0.3965,1473.68474675211
0.397,1473.68478597612
0.3975,1473.68482393504
0.398,1473.68486063443
0.3985,1473.68489607979
0.399,1473.68493027663
0.3995,1473.68496323043
0.4,1473.68499494664
0.4005,1473.68502543071
0.401,1473.68505468804
0.4015,1473.68508272403
0.402,1473.68510954405
0.4025,1473.68513515344
0.403,1473.68515955754
0.4035,1473.68518276166
0.404,1473.68520477107
0.4045,1473.68522559104
0.405,1473.68524522681
0.4055,1473.68526368361
0.406,1473.68528096664
0.4065,1473.68529708108
0.407,1473.68531203208
0.4075,1473.68532582479
0.408,1473.68533846432
0.4085,1473.68534995578
0.409,1473.68536030423
0.4095,1473.68536951474
0.41,1473.68537759235
0.4105,1473.68538454206
0.411,1473.68539036888
0.4115,1473.68539507778
