"Physical Time: Physical Time (s)","Surface Average Rear Temp1 Monitor: Surface Average of Temperature (K)"
0.0005,1473
0.001,1473
0.0015,1473
0.002,1473.00000000001
0.0025,1473.00000000002
0.003,1473.00000000005
0.0035,1473.0000000001
0.004,1473.00000000017
0.0045,1473.00000000024
0.005,1473.00000000028
0.0055,1473.0000000002
0.006,1472.99999999988
0.0065,1472.99999999915
0.007,1472.99999999781
0.0075,1472.99999999565
0.008,1472.99999999248
0.0085,1472.99999998825
0.009,1472.99999998309
0.00950000000000001,1472.9999999775
0.01,1472.99999997246
0.0105,1472.99999996971
0.011,1472.99999997195
0.0115,1472.99999998313
0.012,1473.0000000088
0.0125,1473.00000005648
0.013,1473.00000013604
0.0135,1473.00000026015
0.014,1473.00000044473
0.0145,1473.00000070948
0.015,1473.00000107833
0.0155,1473.00000158
0.016,1473.00000224852
0.0165,1473.00000312377
0.017,1473.000004252
0.0175,1473.00000568636
0.018,1473.00000748741
0.0185,1473.00000972359
0.019,1473.00001247172
0.0195,1473.00001581748
0.02,1473.00001985555
0.0205,1473.0000246903
0.021,1473.000030436
0.0215,1473.00003721706
0.022,1473.00004516831
0.0225,1473.00005443517
0.023,1473.00006517381
0.0235,1473.0000775512
0.024,1473.00009174521
0.0245,1473.00010794456
0.025,1473.0001263488
0.0255,1473.00014716815
0.026,1473.0001706234
0.0265,1473.00019694568
0.027,1473.00022637625
0.0275,1473.00025916616
0.028,1473.00029557597
0.0285,1473.00033587538
0.029,1473.00038034282
0.0295,1473.00042926504
0.03,1473.00048293663
0.0305,1473.00054165954
0.031,1473.00060574257
0.0315,1473.00067550086
0.032,1473.00075125531
0.0325,1473.00083333204
0.033,1473.0009220618
0.0335,1473.00101777941
0.034,1473.00112082313
0.0345,1473.00123153408
0.035,1473.00135025568
0.0355,1473.00147733298
0.036,1473.00161311213
0.0365,1473.00175793975
0.037,1473.00191216238
0.0375,1473.00207612587
0.038,1473.00225017484
0.0385,1473.00243465215
0.039,1473.00262989828
0.0395,1473.00283625093
0.04,1473.00305404439
0.0405,1473.00328360915
0.041,1473.00352527136
0.0415,1473.00377935241
0.042,1473.00404616849
0.0425,1473.00432603016
0.043,1473.00461924199
0.0435,1473.00492610217
0.044,1473.00524690215
0.0445,1473.00558192633
0.045,1473.00593145172
0.0455,1473.00629574769
0.046,1473.00667507569
0.0465,1473.00706968901
0.047,1473.00747983253
0.0475,1473.00790574255
0.048,1473.00834764659
0.0485,1473.00880576325
0.049,1473.00928030203
0.0495,1473.00977146324
0.05,1473.01027943787
0.0505,1473.01080440752
0.051,1473.01134654433
0.0515,1473.0119060109
0.052,1473.0124829603
0.0525,1473.01307753602
0.053,1473.01368987196
0.0535,1473.01432009245
0.054,1473.01496831228
0.0545,1473.01563463671
0.055,1473.01631916156
0.0555,1473.01702197324
0.056,1473.01774314881
0.0565,1473.01848275611
0.057,1473.01924085381
0.0575,1473.02001749153
0.058,1473.02081270995
0.0585,1473.02162654091
0.059,1473.0224590076
0.0595,1473.0233101246
0.06,1473.02417989811
0.0605,1473.02506832602
0.061,1473.02597539814
0.0615,1473.02690109629
0.062,1473.02784539449
0.0625,1473.02880825915
0.063,1473.02978964919
0.0635,1473.03078951625
0.064,1473.03180780485
0.0645,1473.03284445258
0.065,1473.03389939027
0.0655,1473.03497254215
0.066,1473.03606382611
0.0665,1473.03717315377
0.067,1473.03830043078
0.0675,1473.0394455569
0.068,1473.04060842627
0.0685,1473.04178892754
0.069,1473.04298694409
0.0695,1473.04420235419
0.07,1473.04543503117
0.0705,1473.04668484364
0.071,1473.04795165565
0.0715000000000001,1473.04923532685
0.0720000000000001,1473.05053571271
0.0725000000000001,1473.05185266464
0.0730000000000001,1473.05318603021
0.0735000000000001,1473.0545356533
0.0740000000000001,1473.05590137426
0.0745000000000001,1473.05728303008
0.0750000000000001,1473.05868045458
0.0755000000000001,1473.06009347854
0.0760000000000001,1473.06152192985
0.0765000000000001,1473.0629656337
0.0770000000000001,1473.06442441271
0.0775000000000001,1473.06589808706
0.0780000000000001,1473.06738647471
0.0785000000000001,1473.06888939144
0.0790000000000001,1473.07040665107
0.0795000000000001,1473.07193806558
0.0800000000000001,1473.0734834452
0.0805000000000001,1473.07504259861
0.0810000000000001,1473.07661533301
0.0815000000000001,1473.07820145429
0.0820000000000001,1473.07980076712
0.0825000000000001,1473.08141307509
0.0830000000000001,1473.08303818079
0.0835000000000001,1473.08467588597
0.0840000000000001,1473.08632599162
0.0845000000000001,1473.0879882981
0.0850000000000001,1473.08966260521
0.0855000000000001,1473.09134871232
0.0860000000000001,1473.09304641843
0.0865000000000001,1473.09475552232
0.0870000000000001,1473.0964758226
0.0875000000000001,1473.09820711782
0.0880000000000001,1473.09994920654
0.0885000000000001,1473.1017018874
0.0890000000000001,1473.10346495925
0.0895000000000001,1473.10523822119
0.0900000000000001,1473.10702147265
0.0905000000000001,1473.10881451344
0.0910000000000001,1473.1106171439
0.0915000000000001,1473.11242916485
0.0920000000000001,1473.11425037777
0.0925000000000001,1473.11608058477
0.0930000000000001,1473.1179195887
0.0935000000000001,1473.11976719321
0.0940000000000001,1473.12162320277
0.0945000000000001,1473.12348742275
0.0950000000000001,1473.12535965947
0.0955000000000001,1473.12723972024
0.0960000000000001,1473.12912741341
0.0965000000000001,1473.1310225484
0.0970000000000001,1473.13292493578
0.0975000000000001,1473.13483423675
0.0980000000000001,1473.1367504129
0.0985000000000001,1473.13867329365
0.0990000000000001,1473.14060269453
0.0995000000000001,1473.14253842977
0.1,1473.14448031507
0.1005,1473.14642816809
0.101,1473.14838180837
0.1015,1473.15034105724
0.102,1473.15230573773
0.1025,1473.15427567451
0.103,1473.15625069389
0.1035,1473.15823062374
0.104,1473.16021529356
0.1045,1473.16220453443
0.105,1473.16419817902
0.1055,1473.16619606163
0.106,1473.16819801816
0.1065,1473.17020388613
0.107,1473.17221350472
0.1075,1473.17422671471
0.108,1473.17624335856
0.1085,1473.17826328038
0.109,1473.18028632593
0.1095,1473.18231234265
0.11,1473.18434117964
0.1105,1473.18637268769
0.111,1473.18840671926
0.1115,1473.1904431285
0.112,1473.19248177122
0.1125,1473.19452250495
0.113,1473.19656518888
0.1135,1473.19860968388
0.114,1473.20065585252
0.1145,1473.20270355905
0.115,1473.20475266938
0.1155,1473.20680305112
0.116,1473.20885457352
0.1165,1473.21090710753
0.117,1473.21296052576
0.1175,1473.21501470246
0.118,1473.21706951354
0.1185,1473.21912483657
0.119,1473.22118055073
0.1195,1473.22323653688
0.12,1473.22529267745
0.1205,1473.22734885653
0.121,1473.2294049598
0.1215,1473.23146087456
0.122,1473.23351648968
0.1225,1473.23557169563
0.123,1473.23762638444
0.1235,1473.23968044972
0.124,1473.24173378663
0.1245,1473.24378629187
0.125,1473.24583786367
0.1255,1473.24788840179
0.126,1473.24993780751
0.1265,1473.25198598359
0.127,1473.25403283431
0.1275,1473.25607826539
0.128,1473.25812218405
0.1285,1473.26016449896
0.129,1473.26220512021
0.1295,1473.26424395935
0.13,1473.26628092933
0.1305,1473.26831594451
0.131,1473.27034892066
0.1315,1473.2723797749
0.132,1473.27440842575
0.1325,1473.27643479308
0.133,1473.27845879808
0.1335,1473.28048036331
0.134,1473.28249941261
0.1345,1473.28451587115
0.135,1473.28652966538
0.1355,1473.28854072305
0.136,1473.29054897315
0.1365,1473.29255434593
0.137,1473.2945567729
0.1375,1473.29655618678
0.138,1473.2985525215
0.1385,1473.3005457122
0.139,1473.30253569521
0.1395,1473.30452240805
0.14,1473.30650578936
0.1405,1473.30848577898
0.141,1473.31046231785
0.1415,1473.31243534806
0.142,1473.31440481279
0.1425,1473.31637065634
0.143,1473.31833282408
0.1435,1473.32029126245
0.144,1473.32224591896
0.1445,1473.32419674218
0.145,1473.32614368169
0.1455,1473.32808668812
0.146,1473.33002571309
0.1465,1473.33196070921
0.147,1473.33389163012
0.1475,1473.33581843038
0.148,1473.33774106556
0.1485,1473.33965949215
0.149,1473.34157366758
0.1495,1473.34348355022
0.15,1473.34538909935
0.1505,1473.34729027514
0.151,1473.34918703867
0.1515,1473.35107935189
0.152,1473.35296717762
0.1525,1473.35485047953
0.153,1473.35672922215
0.1535,1473.35860337083
0.154,1473.36047289176
0.1545,1473.36233775192
0.155,1473.36419791911
0.1555,1473.36605336192
0.156,1473.3679040497
0.1565,1473.3697499526
0.157,1473.37159104151
0.1575,1473.37342728807
0.158,1473.37525866465
0.1585,1473.37708514437
0.159,1473.37890670104
0.1595,1473.38072330922
0.16,1473.38253494411
0.1605,1473.38434158165
0.161,1473.38614319843
0.1615,1473.38793977172
0.162,1473.38973127944
0.1625,1473.39151770016
0.163,1473.39329901311
0.1635,1473.39507519811
0.164,1473.39684623566
0.1645,1473.39861210681
0.165,1473.40037279326
0.1655,1473.40212827728
0.166,1473.40387854174
0.1665,1473.40562357009
0.167,1473.40736334632
0.1675,1473.40909785502
0.168,1473.41082708131
0.1685,1473.41255101085
0.169,1473.41426962985
0.1695,1473.41598292503
0.17,1473.41769088365
0.1705,1473.41939349347
0.171,1473.42109074273
0.1715,1473.42278262023
0.172,1473.42446911519
0.1725,1473.42615021734
0.173,1473.42782591689
0.1735,1473.4294962045
0.174,1473.43116107131
0.1745,1473.43282050888
0.175,1473.43447450923
0.1755,1473.43612306483
0.176,1473.43776616857
0.1765,1473.43940381375
0.177,1473.4410359941
0.1775,1473.44266270377
0.178,1473.44428393728
0.1785,1473.44589968958
0.179,1473.447509956
0.1795,1473.44911473224
0.18,1473.4507140144
0.1805,1473.45230779893
0.181,1473.45389608266
0.1815,1473.45547886278
0.182,1473.45705613681
0.1825,1473.45862790265
0.183,1473.46019415853
0.1835,1473.461754903
0.184,1473.46331013495
0.1845,1473.46485985361
0.185,1473.4664040585
0.1855,1473.46794274947
0.186,1473.46947592668
0.1865,1473.4710035906
0.187,1473.47252574197
0.1875,1473.47404238185
0.188,1473.47555351156
0.1885,1473.47705913274
0.189,1473.47855924727
0.1895,1473.48005385733
0.19,1473.48154296534
0.1905,1473.48302657402
0.191,1473.48450468631
0.1915,1473.48597730542
0.192,1473.48744443481
0.1925,1473.48890607819
0.193,1473.4903622395
0.1935,1473.49181292291
0.194,1473.49325813284
0.1945,1473.49469787393
0.195,1473.49613215102
0.1955,1473.49756096921
0.196,1473.49898433378
0.1965,1473.50040225023
0.197,1473.50181472428
0.1975,1473.50322176184
0.198,1473.50462336901
0.1985,1473.50601955211
0.199,1473.50741031763
0.1995,1473.50879567224
0.2,1473.51017562283
0.2005,1473.51155017644
0.201,1473.51291934029
0.2015,1473.51428312178
0.202,1473.51564152849
0.2025,1473.51699456813
0.203,1473.51834224861
0.2035,1473.51968457798
0.204,1473.52102156447
0.2045,1473.52235321643
0.205,1473.52367954237
0.2055,1473.52500055097
0.206,1473.52631625103
0.2065,1473.52762665149
0.207,1473.52893176144
0.2075,1473.53023159011
0.208,1473.53152614684
0.2085,1473.53281544112
0.209,1473.53409948255
0.2095,1473.53537828086
0.21,1473.53665184591
0.2105,1473.53792018766
0.211,1473.53918331621
0.2115,1473.54044124176
0.212,1473.5416939746
0.2125,1473.54294152516
0.213,1473.54418390397
0.2135,1473.54542112164
0.214,1473.5466531889
0.2145,1473.54788011659
0.215,1473.54910191561
0.2155,1473.55031859698
0.216,1473.55153017181
0.2165,1473.55273665129
0.217,1473.5539380467
0.2175,1473.5551343694
0.218,1473.55632563085
0.2185,1473.55751184257
0.219,1473.55869301617
0.2195,1473.55986916332
0.22,1473.5610402958
0.2205,1473.56220642542
0.221,1473.5633675641
0.2215,1473.56452372378
0.222,1473.56567491651
0.2225,1473.56682115439
0.223,1473.56796244958
0.2235,1473.56909881431
0.224,1473.57023026085
0.2245,1473.57135680154
0.225,1473.57247844879
0.2255,1473.57359521504
0.226,1473.5747071128
0.2265,1473.57581415461
0.227,1473.57691635309
0.2275,1473.57801372088
0.228,1473.57910627067
0.2285,1473.58019401521
0.229,1473.58127696729
0.2295,1473.58235513973
0.23,1473.58342854539
0.2305,1473.58449719718
0.231,1473.58556110805
0.2315,1473.58662029096
0.232,1473.58767475894
0.2325,1473.58872452502
0.233,1473.58976960229
0.2335,1473.59081000386
0.234,1473.59184574285
0.2345,1473.59287683244
0.235,1473.59390328582
0.2355,1473.59492511621
0.236,1473.59594233684
0.2365,1473.59695496099
0.237,1473.59796300194
0.2375,1473.598966473
0.238,1473.5999653875
0.2385,1473.60095975878
0.239,1473.60194960022
0.2395,1473.60293492518
0.24,1473.60391574707
0.2405,1473.6048920793
0.241,1473.60586393529
0.2415,1473.60683132848
0.242,1473.60779427232
0.2425,1473.60875278027
0.243,1473.60970686579
0.2435,1473.61065654237
0.244,1473.61160182348
0.2445,1473.61254272263
0.245,1473.6134792533
0.2455,1473.614411429
0.246,1473.61533926324
0.2465,1473.61626276953
0.247,1473.61718196138
0.2475,1473.61809685231
0.248,1473.61900745584
0.2485,1473.61991378547
0.249,1473.62081585474
0.2495,1473.62171367714
0.25,1473.6226072662
0.2505,1473.62349663542
0.251,1473.62438179831
0.2515,1473.62526276838
0.252,1473.62613955912
0.2525,1473.62701218401
0.253,1473.62788065657
0.2535,1473.62874499024
0.254,1473.62960519852
0.2545,1473.63046129487
0.255,1473.63131329274
0.2555,1473.63216120557
0.256,1473.6330050468
0.2565,1473.63384482986
0.257,1473.63468056817
0.2575,1473.63551227511
0.258,1473.63633996411
0.2585,1473.63716364851
0.259,1473.6379833417
0.2595,1473.63879905702
0.26,1473.63961080781
0.2605,1473.6404186074
0.261,1473.64122246909
0.2615,1473.64202240617
0.262,1473.64281843193
0.2625,1473.64361055962
0.263,1473.64439880248
0.2635,1473.64518317374
0.264,1473.64596368661
0.2645,1473.64674035427
0.265,1473.6475131899
0.2655,1473.64828220665
0.266,1473.64904741765
0.2665,1473.64980883602
0.267,1473.65056647484
0.2675,1473.65132034718
0.268,1473.65207046611
0.2685,1473.65281684464
0.269,1473.65355949578
0.2695,1473.65429843252
0.27,1473.65503366783
0.2705,1473.65576521464
0.271,1473.65649308587
0.2715,1473.65721729441
0.272,1473.65793785314
0.2725,1473.65865477491
0.273,1473.65936807252
0.2735,1473.66007775879
0.274,1473.66078384649
0.2745,1473.66148634836
0.275,1473.66218527713
0.2755,1473.66288064549
0.276,1473.66357246612
0.2765,1473.66426075167
0.277,1473.66494551474
0.2775,1473.66562676794
0.278,1473.66630452383
0.2785,1473.66697879495
0.279,1473.66764959381
0.2795,1473.66831693289
0.28,1473.66898082466
0.2805,1473.66964128154
0.281,1473.67029831593
0.2815,1473.67095194021
0.282,1473.67160216671
0.2825,1473.67224900777
0.283,1473.67289247566
0.2835,1473.67353258263
0.284,1473.67416934093
0.2845,1473.67480276274
0.285,1473.67543286025
0.2855,1473.67605964559
0.286,1473.67668313087
0.2865,1473.67730332817
0.287,1473.67792024955
0.2875,1473.67853390702
0.288,1473.67914431258
0.2885,1473.67975147818
0.289,1473.68035541577
0.2895,1473.68095613723
0.29,1473.68155365443
0.2905,1473.68214797922
0.291,1473.68273912339
0.2915,1473.68332709873
0.292,1473.68391191697
0.2925,1473.68449358984
0.293,1473.68507212901
0.2935,1473.68564754614
0.294,1473.68621985284
0.2945,1473.6867890607
0.295,1473.68735518126
0.2955,1473.68791822608
0.296,1473.68847820661
0.2965,1473.68903513434
0.297,1473.68958902069
0.2975,1473.69013987705
0.298,1473.69068771478
0.2985,1473.69123254522
0.299,1473.69177437967
0.2995,1473.69231322939
0.3,1473.69284910562
0.3005,1473.69338201955
0.301,1473.69391198237
0.3015,1473.6944390052
0.302,1473.69496309915
0.3025,1473.6954842753
0.303,1473.69600254467
0.3035,1473.69651791829
0.304,1473.69703040711
0.3045,1473.69754002209
0.305,1473.69804677413
0.3055,1473.6985506741
0.306,1473.69905173286
0.3065,1473.6995499612
0.307,1473.70004536991
0.3075,1473.70053796974
0.308,1473.70102777139
0.3085,1473.70151478554
0.309,1473.70199902285
0.3095,1473.70248049391
0.31,1473.70295920931
0.3105,1473.70343517961
0.311,1473.70390841531
0.3115,1473.7043789269
0.312,1473.70484672482
0.3125,1473.7053118195
0.313,1473.70577422131
0.3135,1473.7062339406
0.314,1473.7066909877
0.3145,1473.70714537288
0.315,1473.70759710641
0.3155,1473.70804619849
0.316,1473.70849265932
0.3165,1473.70893649904
0.317,1473.70937772779
0.3175,1473.70981635564
0.318,1473.71025239266
0.3185,1473.71068584886
0.319,1473.71111673424
0.3195,1473.71154505875
0.32,1473.71197083232
0.3205,1473.71239406485
0.321,1473.71281476618
0.3215,1473.71323294616
0.322,1473.71364861457
0.3225,1473.71406178117
0.323,1473.7144724557
0.3235,1473.71488064786
0.324,1473.71528636731
0.3245,1473.71568962369
0.325,1473.71609042659
0.3255,1473.71648878558
0.326,1473.7168847102
0.3265,1473.71727820997
0.327,1473.71766929433
0.3275,1473.71805797275
0.328,1473.71844425462
0.3285,1473.71882814934
0.329,1473.71920966622
0.3295,1473.71958881461
0.33,1473.71996560376
0.3305,1473.72034004294
0.331,1473.72071214136
0.3315,1473.72108190821
0.332,1473.72144935264
0.3325,1473.72181448378
0.333,1473.72217731071
0.3335,1473.7225378425
0.334,1473.72289608818
0.3345,1473.72325205675
0.335,1473.72360575716
0.3355,1473.72395719837
0.336,1473.72430638926
0.3365,1473.72465333872
0.337,1473.72499805559
0.3375,1473.72534054868
0.338,1473.72568082676
0.3385,1473.7260188986
0.339,1473.72635477291
0.3395,1473.72668845836
0.34,1473.72701996364
0.3405,1473.72734929736
0.341,1473.72767646811
0.3415,1473.72800148447
0.342,1473.72832435498
0.3425,1473.72864508813
0.343,1473.7289636924
0.3435,1473.72928017624
0.344,1473.72959454806
0.3445,1473.72990681626
0.345,1473.73021698918
0.3455,1473.73052507515
0.346,1473.73083108246
0.3465,1473.73113501939
0.347,1473.73143689417
0.3475,1473.731736715
0.348,1473.73203449007
0.3485,1473.73233022752
0.349,1473.73262393547
0.3495,1473.73291562201
0.35,1473.7332052952
0.3505,1473.73349296307
0.351,1473.73377863362
0.3515,1473.73406231484
0.352,1473.73434401465
0.3525,1473.73462374098
0.353,1473.73490150171
0.3535,1473.7351773047
0.354,1473.73545115778
0.3545,1473.73572306875
0.355,1473.73599304538
0.3555,1473.73626109543
0.356,1473.73652722659
0.3565,1473.73679144657
0.357,1473.73705376301
0.3575,1473.73731418355
0.358,1473.7375727158
0.3585,1473.73782936733
0.359,1473.73808414568
0.3595,1473.73833705838
0.36,1473.73858811291
0.3605,1473.73883731675
0.361,1473.73908467733
0.3615,1473.73933020206
0.362,1473.73957389831
0.3625,1473.73981577346
0.363,1473.74005583482
0.3635,1473.74029408968
0.364,1473.74053054534
0.3645,1473.74076520903
0.365,1473.74099808798
0.3655,1473.74122918937
0.366,1473.74145852037
0.3665,1473.74168608812
0.367,1473.74191189974
0.3675,1473.7421359623
0.368,1473.74235828288
0.3685,1473.74257886849
0.369,1473.74279772616
0.3695,1473.74301486286
0.37,1473.74323028555
0.3705,1473.74344400115
0.371,1473.74365601657
0.3715,1473.74386633869
0.372,1473.74407497435
0.3725,1473.74428193039
0.373,1473.74448721359
0.3735,1473.74469083075
0.374,1473.7448927886
0.3745,1473.74509309387
0.375,1473.74529175325
0.3755,1473.74548877343
0.376,1473.74568416105
0.3765,1473.74587792273
0.377,1473.74607006507
0.3775,1473.74626059464
0.378,1473.74644951799
0.3785,1473.74663684165
0.379,1473.74682257212
0.3795,1473.74700671585
0.38,1473.74718927932
0.3805,1473.74737026894
0.381,1473.74754969111
0.3815,1473.74772755221
0.382,1473.7479038586
0.3825,1473.7480786166
0.383,1473.74825183251
0.3835,1473.74842351262
0.384,1473.74859366318
0.3845,1473.74876229042
0.385,1473.74892940056
0.3855,1473.74909499978
0.386,1473.74925909424
0.3865,1473.74942169009
0.387,1473.74958279342
0.3875,1473.74974241034
0.388,1473.74990054692
0.3885,1473.7500572092
0.389,1473.7502124032
0.3895,1473.75036613491
0.39,1473.75051841033
0.3905,1473.7506692354
0.391,1473.75081861605
0.3915,1473.75096655819
0.392,1473.7511130677
0.3925,1473.75125815046
0.393,1473.75140181229
0.3935,1473.75154405901
0.394,1473.75168489642
0.3945,1473.7518243303
0.395,1473.7519623664
0.3955,1473.75209901043
0.396,1473.75223426812
0.3965,1473.75236814515
0.397,1473.75250064718
0.3975,1473.75263177984
0.398,1473.75276154877
0.3985,1473.75288995956
0.399,1473.75301701778
0.3995,1473.75314272899
0.4,1473.75326709873
0.4005,1473.7533901325
0.401,1473.75351183581
0.4015,1473.75363221411
0.402,1473.75375127285
0.4025,1473.75386901747
0.403,1473.75398545338
0.4035,1473.75410058594
0.404,1473.75421442055
0.4045,1473.75432696253
0.405,1473.7544382172
0.4055,1473.75454818989
0.406,1473.75465688586
0.4065,1473.75476431037
0.407,1473.75487046868
0.4075,1473.754975366
0.408,1473.75507900753
0.4085,1473.75518139846
0.409,1473.75528254394
0.4095,1473.75538244911
0.41,1473.75548111911
0.4105,1473.75557855902
0.411,1473.75567477394
0.4115,1473.75576976891
