"Physical Time: Physical Time (s)","Surface Average Rear Temp1 Monitor: Surface Average of Temperature (K)"
0.0005,573
0.001,572.999999999945
0.0015,572.999999999678
0.002,572.999999999338
0.0025,573.000000001218
0.003,573.000000014439
0.0035,573.000000063779
0.004,573.000000203735
0.0045,573.000000538271
0.005,573.000001246134
0.0055,573.00000261097
0.006,573.000005054931
0.0065,573.000009174187
0.007,573.000015774521
0.0075,573.000025905082
0.008,573.000040888881
0.0085,573.000062348278
0.009,573.000092224496
0.00950000000000001,573.000132790307
0.01,573.000186655456
0.0105,573.000256764682
0.011,573.000346388535
0.0115,573.000459107398
0.012,573.000598789348
0.0125,573.000769562655
0.013,573.000975783754
0.0135,573.001222001682
0.014,573.001512919848
0.0145,573.001853356148
0.015,573.002248202215
0.0155,573.002702382685
0.016,573.003220815149
0.0165,573.003808371455
0.017,573.004469837665
0.0175,573.005209887865
0.018,573.006033046505
0.0185,573.006943659094
0.019,573.007945867429
0.0195,573.009043587066
0.02,573.010240487929
0.0205,573.011539978079
0.021,573.012945190635
0.0215,573.014458973708
0.022,573.016083883183
0.0225,573.017822178222
0.023,573.019675819241
0.0235,573.021646468201
0.024,573.023735490987
0.0245,573.025943961664
0.025,573.028272668387
0.0255,573.030722120788
0.026,573.033292558604
0.0265,573.03598396139
0.027,573.038796059092
0.0275,573.041728343367
0.028,573.044780079438
0.0285,573.047950318384
0.029,573.05123790969
0.0295,573.054641513984
0.03,573.058159615821
0.0305,573.061790536421
0.031,573.065532446302
0.0315,573.069383377705
0.032,573.073341236769
0.0325,573.077403815392
0.033,573.081568802742
0.0335,573.085833796378
0.034,573.090196312933
0.0345,573.094653798389
0.035,573.099203637862
0.0355,573.103843164919
0.036,573.108569670449
0.0365,573.113380411009
0.037,573.118272616734
0.0375,573.123243498743
0.038,573.128290256093
0.0385,573.133410082274
0.039,573.138600171262
0.0395,573.14385772312
0.04,573.149179949209
0.0405,573.154564076967
0.041,573.160007354319
0.0415,573.165507053704
0.042,573.171060475753
0.0425,573.176664952622
0.043,573.182317851008
0.0435,573.188016574862
0.044,573.19375856781
0.0445,573.199541315292
0.045,573.205362346473
0.0455,573.211219235877
0.046,573.217109604834
0.0465,573.223031122675
0.047,573.228981507769
0.0475,573.234958528351
0.048,573.24096000319
0.0485,573.246983802097
0.049,573.253027846287
0.0495,573.259090108604
0.05,573.265168613634
0.0505,573.271261437676
0.051,573.277366708643
0.0515,573.283482605847
0.052,573.289607359692
0.0525,573.295739251311
0.053,573.301876612107
0.0535,573.308017823247
0.054,573.314161315087
0.0545,573.320305566552
0.055,573.326449104472
0.0555,573.332590502867
0.056,573.338728382208
0.0565,573.344861408641
0.057,573.350988293188
0.0575,573.357107790919
0.058,573.363218700116
0.0585,573.369319861413
0.059,573.375410156926
0.0595,573.38148850937
0.06,573.387553881181
0.0605,573.393605273623
0.061,573.39964172589
0.0615,573.405662314225
0.062,573.41166615102
0.0625,573.417652383934
0.063,573.423620195011
0.0635,573.429568799804
0.064,573.435497446509
0.0645,573.4414054151
0.065,573.447292016493
0.0655,573.453156591692
0.066,573.458998510973
0.0665,573.464817173067
0.067,573.470612004352
0.0675,573.476382458071
0.068,573.48212747938
0.0685,573.48784719542
0.069,573.493541129293
0.0695,573.499208807006
0.07,573.504849787352
0.0705,573.510463658774
0.071,573.516050035432
0.0715000000000001,573.521608554704
0.0720000000000001,573.52713887559
0.0725000000000001,573.532640677587
0.0730000000000001,573.538113659794
0.0735000000000001,573.543557540161
0.0740000000000001,573.548972054793
0.0745000000000001,573.554356957308
0.0750000000000001,573.559712018242
0.0755000000000001,573.565037024448
0.0760000000000001,573.570331778547
0.0765000000000001,573.575596098384
0.0770000000000001,573.580829816501
0.0775000000000001,573.586032779623
0.0780000000000001,573.591204848175
0.0785000000000001,573.596345895794
0.0790000000000001,573.601455808868
0.0795000000000001,573.606534486086
0.0800000000000001,573.611581837995
0.0805000000000001,573.616597786582
0.0810000000000001,573.621582264856
0.0815000000000001,573.626535216454
0.0820000000000001,573.631456595241
0.0825000000000001,573.636346364949
0.0830000000000001,573.641204498798
0.0835000000000001,573.64603097915
0.0840000000000001,573.65082579716
0.0845000000000001,573.655588952444
0.0850000000000001,573.660320452758
0.0855000000000001,573.665020313679
0.0860000000000001,573.669688558307
0.0865000000000001,573.674325216966
0.0870000000000001,573.678930326925
0.0875000000000001,573.683503932108
0.0880000000000001,573.688046082843
0.0885000000000001,573.69255683559
0.0890000000000001,573.697036252694
0.0895000000000001,573.701484402142
0.0900000000000001,573.705901357326
0.0905000000000001,573.710287196817
0.0910000000000001,573.714642004138
0.0915000000000001,573.718965867558
0.0920000000000001,573.723258879883
0.0925000000000001,573.727521138249
0.0930000000000001,573.731752743939
0.0935000000000001,573.735953802185
0.0940000000000001,573.740124421996
0.0945000000000001,573.744264715978
0.0950000000000001,573.748374800165
0.0955000000000001,573.752454793851
0.0960000000000001,573.756504819442
0.0965000000000001,573.760525002296
0.0970000000000001,573.764515470571
0.0975000000000001,573.76847635509
0.0980000000000001,573.772407789202
0.0985000000000001,573.776309908642
0.0990000000000001,573.780182851406
0.0995000000000001,573.784026757631
0.1,573.787841769465
0.1005,573.791628030962
0.101,573.79538568796
0.1015,573.79911488798
0.102,573.802815780116
0.1025,573.806488514938
0.103,573.810133244395
0.1035,573.813750121718
0.104,573.817339301333
0.1045,573.820900938774
0.105,573.824435190594
0.1055,573.827942214289
0.106,573.831422168217
0.1065,573.834875211525
0.107,573.838301504077
0.1075,573.841701206378
0.108,573.845074479514
0.1085,573.848421485083
0.109,573.851742385139
0.1095,573.855037342117
0.11,573.858306518793
0.1105,573.861550078219
0.111,573.864768183668
0.1115,573.86796099859
0.112,573.871128686551
0.1125,573.874271411199
0.113,573.877389336211
0.1135,573.880482625247
0.114,573.883551441911
0.1145,573.886595949712
0.115,573.889616312022
0.1155,573.892612692041
0.116,573.895585252759
0.1165,573.898534156924
0.117,573.901459567007
0.1175,573.904361645173
0.118,573.907240553247
0.1185,573.91009645269
0.119,573.912929504566
0.1195,573.915739869523
0.12,573.918527707756
0.1205,573.921293178998
0.121,573.924036442482
0.1215,573.926757656926
0.122,573.929456980516
0.1225,573.932134570878
0.123,573.934790585066
0.1235,573.937425179533
0.124,573.940038510128
0.1245,573.942630732066
0.125,573.945201999926
0.1255,573.947752467621
0.126,573.950282288399
0.1265,573.952791614814
0.127,573.955280598728
0.1275,573.957749391288
0.128,573.960198142924
0.1285,573.962627003328
0.129,573.965036121453
0.1295,573.967425645498
0.13,573.969795722901
0.1305,573.972146500331
0.131,573.974478123682
0.1315,573.976790738059
0.132,573.979084487778
0.1325,573.98135951636
0.133,573.983615966515
0.1335,573.985853980152
0.134,573.988073698359
0.1345,573.990275261412
0.135,573.992458808759
0.1355,573.994624479022
0.136,573.996772409998
0.1365,573.998902738643
0.137,574.001015601083
0.1375,574.003111132605
0.138,574.00518946765
0.1385,574.007250739825
0.139,574.009295081887
0.1395,574.011322625749
0.14,574.013333502481
0.1405,574.015327842306
0.141,574.017305774595
0.1415,574.019267427877
0.142,574.021212929833
0.1425,574.023142407292
0.143,574.025055986244
0.1435,574.026953791826
0.144,574.028835948336
0.1445,574.030702579223
0.145,574.032553807096
0.1455,574.034389753723
0.146,574.036210540029
0.1465,574.038016286103
0.147,574.039807111201
0.1475,574.041583133737
0.148,574.043344471302
0.1485,574.045091240647
0.149,574.046823557705
0.1495,574.048541537579
0.15,574.050245294551
0.1505,574.051934942083
0.151,574.053610592821
0.1515,574.055272358601
0.152,574.056920350439
0.1525,574.058554678554
0.153,574.060175452354
0.1535,574.061782780446
0.154,574.063376770647
0.1545,574.064957529971
0.155,574.066525164647
0.1555,574.068079780115
0.156,574.069621481034
0.1565,574.071150371279
0.157,574.072666553956
0.1575,574.074170131391
0.158,574.075661205149
0.1585,574.077139876032
0.159,574.078606244071
0.1595,574.080060408555
0.16,574.081502468013
0.1605,574.082932520225
0.161,574.084350662232
0.1615,574.085756990335
0.162,574.087151600096
0.1625,574.088534586349
0.163,574.089906043199
0.1635,574.091266064029
0.164,574.092614741507
0.1645,574.09395216758
0.165,574.095278433492
0.1655,574.096593629777
0.166,574.097897846269
0.1665,574.099191172108
0.167,574.100473695739
0.1675,574.101745504917
0.168,574.103006686718
0.1685,574.104257327535
0.169,574.105497513087
0.1695,574.106727328426
0.17,574.107946857932
0.1705,574.109156185328
0.171,574.110355393674
0.1715,574.111544565387
0.172,574.112723782223
0.1725,574.113893125304
0.173,574.115052675109
0.1735,574.116202511476
0.174,574.117342713622
0.1745,574.118473360128
0.175,574.119594528959
0.1755,574.120706297458
0.176,574.121808742356
0.1765,574.122901939776
0.177,574.123985965231
0.1775,574.125060893638
0.178,574.126126799314
0.1785,574.127183755987
0.179,574.128231836796
0.1795,574.129271114294
0.18,574.130301660456
0.1805,574.13132354668
0.181,574.132336843795
0.1815,574.133341622063
0.182,574.134337951181
0.1825,574.135325900289
0.183,574.13630553797
0.1835,574.137276932259
0.184,574.138240150642
0.1845,574.139195260067
0.185,574.140142326938
0.1855,574.141081417126
0.186,574.142012595977
0.1865,574.142935928301
0.187,574.143851478395
0.1875,574.144759310032
0.188,574.145659486473
0.1885,574.146552070463
0.189,574.147437124246
0.1895,574.148314709562
0.19,574.149184887653
0.1905,574.15004771926
0.191,574.150903264638
0.1915,574.151751583551
0.192,574.15259205163
0.1925,574.153425527252
0.193,574.154252058224
0.1935,574.155071668051
0.194,574.155884392172
0.1945,574.156690274609
0.195,574.157489363887
0.1955,574.158281710757
0.196,574.159067367056
0.1965,574.159846385096
0.197,574.160618817351
0.1975,574.161384716279
0.198,574.162144134207
0.1985,574.162897123259
0.199,574.163643735313
0.1995,574.164384021969
0.2,574.165118034517
0.2005,574.16584582393
0.201,574.166567440839
0.2015,574.16728293553
0.202,574.167992357936
0.2025,574.168695757627
0.203,574.169393183806
0.2035,574.170084685314
0.204,574.170770310618
0.2045,574.171450107812
0.205,574.172124124627
0.2055,574.172792408413
0.206,574.173455006158
0.2065,574.174111964472
0.207,574.174763329603
0.2075,574.175409147429
0.208,574.176049463461
0.2085,574.176684322852
0.209,574.177313770385
0.2095,574.177937850494
0.21,574.178556607246
0.2105,574.179170084355
0.211,574.179778325187
0.2115,574.180381372753
0.212,574.180979269717
0.2125,574.181572058399
0.213,574.182159780772
0.2135,574.182742478471
0.214,574.183320192794
0.2145,574.183892964699
0.215,574.184460834814
0.2155,574.185023843437
0.216,574.185582030535
0.2165,574.186135435751
0.217,574.186684098405
0.2175,574.187228057493
0.218,574.187767351696
0.2185,574.188302019378
0.219,574.18883209859
0.2195,574.189357627071
0.22,574.189878642252
0.2205,574.190395181261
0.221,574.190907280916
0.2215,574.191414977738
0.222,574.19191830795
0.2225,574.192417307475
0.223,574.192912011945
0.2235,574.193402456697
0.224,574.193888676782
0.2245,574.194370706961
0.225,574.194848581711
0.2255,574.195322335229
0.226,574.195792001425
0.2265,574.196257613938
0.227,574.196719206128
0.2275,574.197176811081
0.228,574.197630461613
0.2285,574.19808019027
0.229,574.198526029331
0.2295,574.198968010812
0.23,574.199406166457
0.2305,574.199840527765
0.231,574.200271125966
0.2315,574.200697992034
0.232,574.20112115669
0.2325,574.201540650405
0.233,574.201956503396
0.2335,574.202368745636
0.234,574.202777406849
0.2345,574.203182516513
0.235,574.203584103866
0.2355,574.203982197911
0.236,574.204376827402
0.2365,574.204768020864
0.237,574.205155806586
0.2375,574.205540212625
0.238,574.205921266806
0.2385,574.206298996726
0.239,574.206673429756
0.2395,574.20704459304
0.24,574.207412513501
0.2405,574.207777217839
0.241,574.208138732536
0.2415,574.208497083854
0.242,574.208852297842
0.2425,574.209204400332
0.243,574.209553416947
0.2435,574.209899373094
0.244,574.210242293977
0.2445,574.210582204587
0.245,574.210919129715
0.2455,574.211253093944
0.246,574.211584121657
0.2465,574.211912237037
0.247,574.212237464063
0.2475,574.212559826523
0.248,574.212879348006
0.2485,574.21319605191
0.249,574.213509961435
0.2495,574.213821099594
0.25,574.214129489213
0.2505,574.214435152923
0.251,574.214738113174
0.2515,574.215038392233
0.252,574.215336012178
0.2525,574.215630994911
0.253,574.215923362147
0.2535,574.216213135433
0.254,574.216500336127
0.2545,574.216784985416
0.255,574.217067104317
0.2555,574.217346713667
0.256,574.217623834136
0.2565,574.217898486221
0.257,574.218170690253
0.2575,574.218440466395
0.258,574.218707834643
0.2585,574.218972814828
0.259,574.21923542662
0.2595,574.219495689524
0.26,574.219753622888
0.2605,574.220009245897
0.261,574.220262577583
0.2615,574.220513636816
0.262,574.220762442315
0.2625,574.221009012641
0.263,574.221253366205
0.2635,574.221495521266
0.264,574.221735495933
0.2645,574.221973308164
0.265,574.22220897577
0.2655,574.222442516418
0.266,574.222673947625
0.2665,574.222903286768
0.267,574.223130551077
0.2675,574.223355757645
0.268,574.22357892342
0.2685,574.223800065212
0.269,574.224019199692
0.2695,574.224236343395
0.27,574.22445151272
0.2705,574.224664723929
0.271,574.224875993152
0.2715,574.225085336388
0.272,574.225292769495
0.2725,574.225498308214
0.273,574.225701968147
0.2735,574.225903764769
0.274,574.226103713431
0.2745,574.226301829354
0.275,574.226498127635
0.2755,574.226692623248
0.276,574.226885331041
0.2765,574.227076265743
0.277,574.227265441958
0.2775,574.227452874171
0.278,574.227638576752
0.2785,574.227822563944
0.279,574.228004849883
0.2795,574.22818544858
0.28,574.228364373936
0.2805,574.228541639732
0.281,574.228717259643
0.2815,574.228891247226
0.282,574.229063615928
0.2825,574.229234379085
0.283,574.229403549924
0.2835,574.229571141561
0.284,574.229737167005
0.2845,574.22990163916
0.285,574.230064570822
0.2855,574.230225974679
0.286,574.230385863321
0.2865,574.230544249228
0.287,574.23070114478
0.2875,574.230856562254
0.288,574.231010513828
0.2885,574.231163011579
0.289,574.231314067481
0.2895,574.231463693414
0.29,574.231611901159
0.2905,574.2317587024
0.291,574.231904108722
0.2915,574.232048131618
0.292,574.232190782486
0.2925,574.232332072627
0.293,574.232472013254
0.2935,574.232610615483
0.294,574.232747890342
0.2945,574.232883848764
0.295,574.233018501597
0.2955,574.233151859595
0.296,574.233283933429
0.2965,574.233414733676
0.297,574.233544270828
0.2975,574.233672555293
0.298,574.233799597392
0.2985,574.233925407359
0.299,574.234049995345
0.2995,574.234173371419
0.3,574.234295545565
0.3005,574.234416527685
0.301,574.234536327601
0.3015,574.234654955053
0.302,574.2347724197
0.3025,574.234888731122
0.303,574.235003898822
0.3035,574.235117932221
0.304,574.235230840667
0.3045,574.235342633428
0.305,574.235453319695
0.3055,574.235562908585
0.306,574.235671409138
0.3065,574.235778830325
0.307,574.235885181035
0.3075,574.235990470091
0.308,574.236094706238
0.3085,574.236197898152
0.309,574.236300054437
0.3095,574.236401183627
0.31,574.236501294182
0.3105,574.236600394496
0.311,574.236698492896
0.3115,574.236795597633
0.312,574.236891716895
0.3125,574.236986858803
0.313,574.23708103141
0.3135,574.237174242704
0.314,574.237266500602
0.3145,574.237357812963
0.315,574.237448187576
0.3155,574.23753763217
0.316,574.237626154406
0.3165,574.237713761884
0.317,574.237800462143
0.3175,574.237886262659
0.318,574.237971170843
0.3185,574.23805519405
0.319,574.23813833957
0.3195,574.238220614638
0.32,574.238302026425
0.3205,574.238382582044
0.321,574.238462288552
0.3215,574.238541152943
0.322,574.238619182157
0.3225,574.238696383078
0.323,574.238772762529
0.3235,574.238848327279
0.324,574.238923084045
0.3245,574.238997039481
0.325,574.239070200191
0.3255,574.239142572727
0.326,574.239214163581
0.3265,574.239284979195
0.327,574.239355025956
0.3275,574.239424310204
0.328,574.239492838218
0.3285,574.239560616232
0.329,574.239627650427
0.3295,574.239693946931
0.33,574.23975901978
0.3305,574.239823446789
0.331,574.239887227356
0.3315,574.2399503445
0.332,574.240012789265
0.3325,574.240074558633
0.333,574.240135652861
0.3335,574.240196073977
0.334,574.240255825012
0.3345,574.240314909595
0.335,574.240373331747
0.3355,574.240431095738
0.336,574.240488206018
0.3365,574.240544667166
0.337,574.240600483851
0.3375,574.240655660804
0.338,574.240710202805
0.3385,574.240764114662
0.339,574.240817401201
0.3395,574.240870067257
0.34,574.240922117663
0.3405,574.24097355725
0.341,574.241024390836
0.3415,574.241074623226
0.342,574.241124259202
0.3425,574.241173303531
0.343,574.241221760951
0.3435,574.24126963618
0.344,574.241316933904
0.3445,574.241363658783
0.345,574.241409815451
0.3455,574.241455408505
0.346,574.241500442517
0.3465,574.241544922027
0.347,574.241588851539
0.3475,574.241632235533
0.348,574.241675078446
0.3485,574.241717384692
0.349,574.241759158649
0.3495,574.241800404663
0.35,574.24184112704
0.3505,574.241881330066
0.351,574.241921017987
0.3515,574.241960195014
0.352,574.241998865331
0.3525,574.242037033086
0.353,574.242074702395
0.3535,574.242111877343
0.354,574.242148561983
0.3545,574.242184760334
0.355,574.242220476385
0.3555,574.242255714091
0.356,574.242290477379
0.3565,574.242324770141
0.357,574.242358596241
0.3575,574.242391959509
0.358,574.242424863749
0.3585,574.242457312729
0.359,574.242489310188
0.3595,574.242520859837
0.36,574.242551965355
0.3605,574.242582630393
0.361,574.242612858571
0.3615,574.24264265348
0.362,574.242672018681
0.3625,574.242700957709
0.363,574.242729474065
0.3635,574.24275757123
0.364,574.242785252646
0.3645,574.242812521735
0.365,574.242839381889
0.3655,574.242865836468
0.366,574.242891888815
0.3665,574.242917542232
0.367,574.242942800005
0.3675,574.242967665389
0.368,574.242992141611
0.3685,574.243016231874
0.369,574.243039939354
0.3695,574.243063267201
0.37,574.243086218539
0.3705,574.243108796465
0.371,574.243131004055
0.3715,574.243152844354
0.372,574.243174320386
0.3725,574.24319543515
0.373,574.243216191618
0.3735,574.24323659274
0.374,574.243256641442
0.3745,574.243276340621
0.375,574.24329569316
0.3755,574.243314701905
0.376,574.243333369693
0.3765,574.243351699326
0.377,574.24336969359
0.3775,574.243387355245
0.378,574.243404687029
0.3785,574.243421691659
0.379,574.243438371827
0.3795,574.243454730203
0.38,574.243470769438
0.3805,574.243486492158
0.381,574.243501900971
0.3815,574.243516998461
0.382,574.243531787189
0.3825,574.2435462697
0.383,574.243560448512
0.3835,574.243574326126
0.384,574.243587905025
0.3845,574.243601187666
0.385,574.243614176487
0.3855,574.24362687391
0.386,574.243639282333
0.3865,574.243651404135
0.387,574.243663241677
0.3875,574.243674797299
0.388,574.243686073324
0.3885,574.243697072052
0.389,574.243707795767
0.3895,574.243718246732
0.39,574.243728427196
0.3905,574.243738339385
0.391,574.243747985509
0.3915,574.243757367756
0.392,574.243766488301
0.3925,574.243775349301
0.393,574.243783952889
0.3935,574.243792301189
0.394,574.2438003963
0.3945,574.243808240308
0.395,574.243815835282
0.3955,574.243823183273
0.396,574.243830286312
0.3965,574.24383714642
0.397,574.243843765595
0.3975,574.243850145822
0.398,574.24385628907
0.3985,574.243862197287
0.399,574.243867872414
0.3995,574.243873316368
0.4,574.243878531053
0.4005,574.243883518357
0.401,574.243888280153
0.4015,574.243892818298
0.402,574.243897134636
0.4025,574.243901230991
0.403,574.243905109177
0.4035,574.24390877099
0.404,574.243912218212
0.4045,574.243915452614
0.405,574.243918475944
0.4055,574.243921289943
0.406,574.243923896335
0.4065,574.24392629683
0.407,574.243928493125
0.4075,574.243930486901
0.408,574.243932279827
0.4085,574.243933873558
0.409,574.243935269734
0.4095,574.243936469981
0.41,574.243937475917
0.4105,574.243938289138
