"Physical Time: Physical Time (s)","Surface Average Rear Temp1 Monitor: Surface Average of Temperature (K)"
0.0005,298.00000000213
0.001,298.000000026332
0.0015,298.000000167431
0.002,298.00000073381
0.0025,298.000002503502
0.003,298.000007110405
0.0035,298.000017540304
0.004,298.000038686276
0.0045,298.000077894917
0.005,298.000145431792
0.0055,298.000254806
0.006,298.000422913096
0.0065,298.000669979216
0.007,298.001019312527
0.0075,298.001496879875
0.008,298.002130755867
0.0085,298.002950473632
0.009,298.003986328436
0.00950000000000001,298.005268672711
0.01,298.006827237794
0.0105,298.00869051043
0.011,298.010885184459
0.0115,298.013435700693
0.012,298.016363881364
0.0125,298.019688659935
0.013,298.023425902659
0.0135,298.027588304863
0.014,298.032185399414
0.0145,298.037223585839
0.015,298.042706233236
0.0155,298.048633830043
0.016,298.055004165082
0.0165,298.06181253319
0.017,298.069051957207
0.0175,298.076713419092
0.018,298.084786094002
0.0185,298.093257582273
0.019,298.102114135231
0.0195,298.11134087168
0.02,298.120921982711
0.0205,298.130840923193
0.021,298.141080588884
0.0215,298.151623478609
0.022,298.162451841352
0.0225,298.17354780843
0.023,298.184893511168
0.0235,298.196471184676
0.024,298.208263258482
0.0245,298.220252434834
0.025,298.232421755569
0.0255,298.244754658448
0.026,298.257235023879
0.0265,298.269847212909
0.027,298.282576097365
0.0275,298.295407082949
0.028,298.308326126085
0.0285,298.321319745236
0.029,298.334375027367
0.0295,298.347479630182
0.03,298.360621780696
0.0305,298.373790270668
0.031,298.386974449356
0.0315,298.400164214029
0.032,298.413349998595
0.0325,298.426522760701
0.033,298.439673967591
0.0335,298.452795580994
0.034,298.465880041268
0.0345,298.478920251011
0.035,298.491909558305
0.0355,298.504841739761
0.036,298.517710983483
0.0365,298.53051187207
0.037,298.543238734653
0.0375,298.555887696194
0.038,298.56845434607
0.0385,298.580934639388
0.039,298.593324864738
0.0395,298.605621616953
0.04,298.617821777683
0.0405,298.629922499237
0.041,298.641921189898
0.0415,298.653815500133
0.042,298.665603309485
0.0425,298.677282714047
0.043,298.688852014493
0.0435,298.700309704633
0.044,298.71165446047
0.0445,298.722885129752
0.045,298.734000721996
0.0455,298.745000398975
0.046,298.755883465643
0.0465,298.766649361509
0.047,298.777297652406
0.0475,298.78782802268
0.048,298.798240267759
0.0485,298.808534287094
0.049,298.818710077457
0.0495,298.828767726594
0.05,298.838707407188
0.0505,298.848529371157
0.051,298.85823394424
0.0515,298.867821520876
0.052,298.877292559361
0.0525,298.886647577261
0.053,298.895887147086
0.0535,298.905011892188
0.054,298.914022482897
0.0545,298.922919632873
0.055,298.931704095654
0.0555,298.940376661412
0.056,298.948938153881
0.0565,298.957389427477
0.057,298.965731364567
0.0575,298.973964872912
0.058,298.982090883253
0.0585,298.990110347038
0.059,298.998024234291
0.0595,299.005833531603
0.06,299.013539240243
0.0605,299.021142374392
0.061,299.028643959479
0.0615,299.036045030615
0.062,299.043346631142
0.0625,299.050549811249
0.063,299.0576556267
0.0635,299.064665137621
0.064,299.071579407385
0.0645,299.078399501556
0.065,299.08512648691
0.0655,299.091761430516
0.066,299.098305398882
0.0665,299.104759457161
0.067,299.111124668408
0.0675,299.117402092888
0.068,299.123592787442
0.0685,299.129697804884
0.069,299.135718193457
0.0695,299.14165499632
0.07,299.147509251076
0.0705,299.153281989339
0.071,299.158974236331
0.0715000000000001,299.164587010515
0.0720000000000001,299.170121323256
0.0725000000000001,299.175578178513
0.0730000000000001,299.180958572553
0.0735000000000001,299.186263493696
0.0740000000000001,299.191493922082
0.0745000000000001,299.196650829456
0.0750000000000001,299.201735178983
0.0755000000000001,299.206747925072
0.0760000000000001,299.211690013227
0.0765000000000001,299.216562379912
0.0770000000000001,299.221365952429
0.0775000000000001,299.226101648821
0.0780000000000001,299.230770377778
0.0785000000000001,299.235373038562
0.0790000000000001,299.239910520945
0.0795000000000001,299.244383705161
0.0800000000000001,299.248793461859
0.0805000000000001,299.253140652077
0.0810000000000001,299.257426127223
0.0815000000000001,299.261650729059
0.0820000000000001,299.265815289704
0.0825000000000001,299.269920631633
0.0830000000000001,299.273967567693
0.0835000000000001,299.277956901118
0.0840000000000001,299.281889425557
0.0845000000000001,299.285765925107
0.0850000000000001,299.289587174341
0.0855000000000001,299.293353938359
0.0860000000000001,299.297066972827
0.0865000000000001,299.30072702403
0.0870000000000001,299.304334828925
0.0875000000000001,299.307891115202
0.0880000000000001,299.31139660134
0.0885000000000001,299.314851996675
0.0890000000000001,299.318258001464
0.0895000000000001,299.321615306958
0.0900000000000001,299.324924595471
0.0905000000000001,299.328186540456
0.0910000000000001,299.33140180658
0.0915000000000001,299.334571049801
0.0920000000000001,299.337694917446
0.0925000000000001,299.340774048297
0.0930000000000001,299.343809072668
0.0935000000000001,299.346800612486
0.0940000000000001,299.349749281381
0.0945000000000001,299.352655684767
0.0950000000000001,299.355520419926
0.0955000000000001,299.358343166282
0.0960000000000001,299.361125658896
0.0965000000000001,299.363868372532
0.0970000000000001,299.366571815436
0.0975000000000001,299.369236517231
0.0980000000000001,299.371863012511
0.0985000000000001,299.374451834229
0.0990000000000001,299.377003511062
0.0995000000000001,299.379518566245
0.1,299.38199751699
0.1005,299.38444087418
0.101,299.386849142209
0.1015,299.389222818901
0.102,299.391562395484
0.1025,299.393868356591
0.103,299.396141180296
0.1035,299.39838133815
0.104,299.400589295242
0.1045,299.402765510251
0.105,299.404910435519
0.1055,299.407024517116
0.106,299.409108194915
0.1065,299.411161902658
0.107,299.413186068037
0.1075,299.415181112764
0.108,299.417147452646
0.1085,299.41908549766
0.109,299.420995652029
0.1095,299.422878314293
0.11,299.424733877385
0.1105,299.426562728704
0.111,299.428365250186
0.1115,299.430141818378
0.112,299.43189280451
0.1125,299.433618574565
0.113,299.435319489349
0.1135,299.43699590456
0.114,299.438648170861
0.1145,299.440276633942
0.115,299.441881634594
0.1155,299.443463508772
0.116,299.445022587658
0.1165,299.446559197735
0.117,299.448073660844
0.1175,299.44956629425
0.118,299.451037410706
0.1185,299.452487318516
0.119,299.453916321594
0.1195,299.455324719526
0.12,299.456712807631
0.1205,299.458080877019
0.121,299.45942921465
0.1215,299.460758103394
0.122,299.462067822083
0.1225,299.463358645573
0.123,299.464630844796
0.1235,299.465884686817
0.124,299.467120434888
0.1245,299.468338348499
0.125,299.469538683436
0.1255,299.470721691826
0.126,299.471887622196
0.1265,299.473036719519
0.127,299.474169225266
0.1275,299.475285377454
0.128,299.476385410696
0.1285,299.477469556249
0.129,299.478538042061
0.1295,299.479591092819
0.13,299.480628929992
0.1305,299.481651771882
0.131,299.482659833663
0.1315,299.48365332743
0.132,299.48463246224
0.1325,299.485597444157
0.133,299.486548476293
0.1335,299.48748575885
0.134,299.488409489161
0.1345,299.489319861736
0.135,299.490217068293
0.1355,299.491101297805
0.136,299.491972736536
0.1365,299.492831568083
0.137,299.493677973406
0.1375,299.494512130876
0.138,299.495334216305
0.1385,299.496144402985
0.139,299.49694286172
0.1395,299.497729760871
0.14,299.498505266379
0.1405,299.499269541809
0.141,299.500022748379
0.1415,299.500765044993
0.142,299.50149658828
0.1425,299.502217532618
0.143,299.502928030174
0.1435,299.503628230928
0.144,299.504318282714
0.1445,299.504998331241
0.145,299.505668520128
0.1455,299.506328990936
0.146,299.50697988319
0.1465,299.507621334418
0.147,299.508253480173
0.1475,299.508876454061
0.148,299.509490387773
0.1485,299.510095411109
0.149,299.510691652007
0.1495,299.511279236569
0.15,299.511858289086
0.1505,299.512428932066
0.151,299.51299128626
0.1515,299.513545470683
0.152,299.514091602643
0.1525,299.514629797767
0.153,299.515160170017
0.1535,299.515682831725
0.154,299.516197893605
0.1545,299.516705464787
0.155,299.517205652829
0.1555,299.517698563751
0.156,299.518184302046
0.1565,299.518662970709
0.157,299.519134671257
0.1575,299.519599503749
0.158,299.520056596903
0.1585,299.5205072641
0.159,299.520951508283
0.1595,299.521389364531
0.16,299.52182089612
0.1605,299.522246178112
0.161,299.522665290433
0.1615,299.523078315058
0.162,299.523485334705
0.1625,299.523886432155
0.163,299.524281689852
0.1635,299.524671189654
0.164,299.525055012678
0.1645,299.525433239194
0.165,299.525805948555
0.1655,299.526173219159
0.166,299.526535128418
0.1665,299.526891752739
0.167,299.527243167524
0.1675,299.52758944716
0.168,299.527930665023
0.1685,299.528266893485
0.169,299.528598203914
0.1695,299.528924666691
0.17,299.529246351211
0.1705,299.529563325898
0.171,299.529875658212
0.1715,299.530183414664
0.172,299.530486660824
0.1725,299.530785461334
0.173,299.531079879919
0.1735,299.5313699794
0.174,299.531655821703
0.1745,299.531937467874
0.175,299.532214978089
0.1755,299.532488411667
0.176,299.532757827078
0.1765,299.53302328196
0.177,299.533284833125
0.1775,299.533542536576
0.178,299.533796447513
0.1785,299.534046620347
0.179,299.534293108711
0.1795,299.534535965469
0.18,299.534775242729
0.1805,299.535010991852
0.181,299.535243263465
0.1815,299.535472107468
0.182,299.535697573047
0.1825,299.535919708681
0.183,299.536138562156
0.1835,299.536354180573
0.184,299.536566610357
0.1845,299.536775897267
0.185,299.536982086405
0.1855,299.53718522223
0.186,299.537385348559
0.1865,299.537582508581
0.187,299.537776744869
0.1875,299.537968099381
0.188,299.538156613475
0.1885,299.538342327917
0.189,299.538525282885
0.1895,299.538705517982
0.19,299.538883072243
0.1905,299.539057984144
0.191,299.539230291607
0.1915,299.539400032011
0.192,299.539567242196
0.1925,299.539731958478
0.193,299.539894216647
0.1935,299.540054051984
0.194,299.54021149926
0.1945,299.540366592749
0.195,299.540519366233
0.1955,299.540669853007
0.196,299.540818085891
0.1965,299.540964097233
0.197,299.541107918917
0.1975,299.541249582368
0.198,299.541389118563
0.1985,299.54152655803
0.199,299.541661930863
0.1995,299.541795266722
0.2,299.541926594842
0.2005,299.542055944038
0.201,299.542183342713
0.2015,299.542308818859
0.202,299.542432400069
0.2025,299.54255411354
0.203,299.542673986077
0.2035,299.542792044103
0.204,299.542908313659
0.2045,299.543022820412
0.205,299.543135589664
0.2055,299.543246646351
0.206,299.543356015052
0.2065,299.543463719994
0.207,299.543569785053
0.2075,299.543674233768
0.208,299.543777089335
0.2085,299.543878374619
0.209,299.543978112158
0.2095,299.544076324165
0.21,299.544173032535
0.2105,299.544268258847
0.211,299.544362024374
0.2115,299.544454350079
0.212,299.544545256628
0.2125,299.544634764389
0.213,299.544722893437
0.2135,299.54480966356
0.214,299.544895094261
0.2145,299.544979204764
0.215,299.545062014017
0.2155,299.545143540695
0.216,299.545223803207
0.2165,299.545302819695
0.217,299.545380608043
0.2175,299.545457185878
0.218,299.545532570572
0.2185,299.545606779251
0.219,299.545679828792
0.2195,299.545751735832
0.22,299.545822516768
0.2205,299.545892187763
0.221,299.545960764746
0.2215,299.546028263418
0.222,299.546094699257
0.2225,299.546159136959
0.223,299.546222763046
0.2235,299.5462855169
0.224,299.546347359301
0.2245,299.546408276698
0.225,299.546468267339
0.2255,299.546527335063
0.226,299.546585486681
0.2265,299.546642730753
0.227,299.546699076915
0.2275,299.546754535492
0.228,299.546809117241
0.2285,299.546862833187
0.229,299.546915694509
0.2295,299.546967712457
0.23,299.547018898301
0.2305,299.547069263285
0.231,299.547118818602
0.2315,299.547167575372
0.232,299.547215544623
0.2325,299.547262737285
0.233,299.547309164176
0.2335,299.547354836001
0.234,299.547399763343
0.2345,299.547443956662
0.235,299.547487426291
0.2355,299.547530182436
0.236,299.547572235174
0.2365,299.547613594455
0.237,299.547654270096
0.2375,299.547694271788
0.238,299.547733609092
0.2385,299.54777229144
0.239,299.54781032814
0.2395,299.547847728369
0.24,299.547884501182
0.2405,299.547920655507
0.241,299.547956200152
0.2415,299.5479911438
0.242,299.548025495015
0.2425,299.54805926224
0.243,299.548092453802
0.2435,299.548125077911
0.244,299.54815714266
0.2445,299.54818865603
0.245,299.548219625888
0.2455,299.54825005999
0.246,299.548279965985
0.2465,299.548309351411
0.247,299.548338223699
0.2475,299.548366590176
0.248,299.548394458066
0.2485,299.548421834487
0.249,299.54844872646
0.2495,299.548475140903
0.25,299.548501084636
0.2505,299.548526564383
0.251,299.548551586772
0.2515,299.548576158335
0.252,299.548600285513
0.2525,299.548623974655
0.253,299.548647232018
0.2535,299.548670063771
0.254,299.548692475994
0.2545,299.54871447468
0.255,299.548736065739
0.2555,299.548757254994
0.256,299.548778048186
0.2565,299.548798450972
0.257,299.548818468932
0.2575,299.548838107563
0.258,299.548857372286
0.2585,299.548876268442
0.259,299.548894801298
0.2595,299.548912976043
0.26,299.548930797796
0.2605,299.5489482716
0.261,299.548965402425
0.2615,299.548982195172
0.262,299.548998654672
0.2625,299.549014785687
0.263,299.549030592909
0.2635,299.549046080965
0.264,299.549061254414
0.2645,299.549076117753
0.265,299.549090675412
0.2655,299.549104931759
0.266,299.549118891098
0.2665,299.549132557673
0.267,299.549145935668
0.2675,299.549159029204
0.268,299.549171842347
0.2685,299.549184379103
0.269,299.549196643421
0.2695,299.549208639194
0.27,299.549220370257
0.2705,299.549231840394
0.271,299.549243053332
0.2715,299.549254012746
0.272,299.549264722259
0.2725,299.54927518544
0.273,299.54928540581
0.2735,299.549295386838
0.274,299.549305131943
0.2745,299.549314644497
0.275,299.549323927821
0.2755,299.549332985191
0.276,299.549341819835
0.2765,299.549350434936
0.277,299.549358833631
0.2775,299.54936701901
0.278,299.549374994123
0.2785,299.549382761973
0.279,299.549390325521
0.2795,299.549397687687
0.28,299.549404851348
0.2805,299.549411819341
0.281,299.54941859446
0.2815,299.549425179461
0.282,299.549431577062
0.2825,299.549437789939
0.283,299.549443820731
0.2835,299.549449672041
0.284,299.549455346433
0.2845,299.549460846434
0.285,299.549466174537
0.2855,299.549471333196
0.286,299.549476324835
0.2865,299.549481151838
0.287,299.549485816557
0.2875,299.549490321313
0.288,299.54949466839
0.2885,299.549498860041
0.289,299.549502898487
0.2895,299.549506785917
0.29,299.549510524489
0.2905,299.549514116329
0.291,299.549517563535
0.2915,299.549520868172
0.292,299.549524032278
0.2925,299.549527057861
0.293,299.5495299469
0.2935,299.549532701346
0.294,299.549535323122
0.2945,299.549537814124
0.295,299.54954017622
0.2955,299.549542411252
0.296,299.549544521036
0.2965,299.549546507362
0.297,299.549548371993
0.2975,299.549550116668
0.298,299.549551743102
0.2985,299.549553252983
0.299,299.549554647978
0.2995,299.549555929728
0.3,299.549557099851
0.3005,299.549558159941
0.301,299.549559111572
0.3015,299.549559956294
0.302,299.549560695633
0.3025,299.549561331095
0.303,299.549561864165
0.3035,299.549562296306
0.304,299.549562628961
0.3045,299.54956286355
0.305,299.549563001475
0.3055,299.549563044118
0.306,299.549562992839
0.3065,299.549562848982
0.307,299.549562613869
0.3075,299.549562288803
0.308,299.549561875071
0.3085,299.549561373939
0.309,299.549560786657
0.3095,299.549560114454
0.31,299.549559358546
0.3105,299.549558520128
0.311,299.549557600379
0.3115,299.549556600461
0.312,299.549555521521
0.3125,299.549554364686
0.313,299.549553131072
0.3135,299.549551821773
0.314,299.549550437873
0.3145,299.549548980438
0.315,299.549547450517
0.3155,299.549545849148
0.316,299.549544177351
0.3165,299.549542436132
0.317,299.549540626484
0.3175,299.549538749385
0.318,299.549536805798
0.3185,299.549534796674
0.319,299.54953272295
0.3195,299.549530585548
0.32,299.549528385379
0.3205,299.54952612334
0.321,299.549523800315
0.3215,299.549521417175
0.322,299.54951897478
0.3225,299.549516473977
0.323,299.5495139156
0.3235,299.549511300472
0.324,299.549508629405
0.3245,299.549505903198
0.325,299.549503122639
0.3255,299.549500288504
0.326,299.54949740156
0.3265,299.549494462561
0.327,299.549491472252
0.3275,299.549488431365
0.328,299.549485340624
0.3285,299.549482200741
0.329,299.549479012419
0.3295,299.54947577635
0.33,299.549472493216
0.3305,299.549469163691
0.331,299.549465788437
0.3315,299.549462368108
0.332,299.549458903348
0.3325,299.549455394792
0.333,299.549451843067
0.3335,299.549448248789
0.334,299.549444612567
0.3345,299.549440935001
0.335,299.549437216681
0.3355,299.54943345819
0.336,299.549429660102
0.3365,299.549425822983
0.337,299.549421947391
0.3375,299.549418033877
0.338,299.549414082982
0.3385,299.549410095241
0.339,299.54940607118
0.3395,299.549402011318
0.34,299.549397916169
0.3405,299.549393786235
0.341,299.549389622015
0.3415,299.549385423999
0.342,299.549381192669
0.3425,299.549376928501
0.343,299.549372631967
0.3435,299.549368303528
0.344,299.54936394364
0.3445,299.549359552753
0.345,299.549355131311
0.3455,299.54935067975
0.346,299.5493461985
0.3465,299.549341687987
0.347,299.549337148629
0.3475,299.549332580838
0.348,299.549327985021
0.3485,299.549323361578
0.349,299.549318710905
0.3495,299.549314033391
0.35,299.54930932942
0.3505,299.54930459937
0.351,299.549299843614
0.3515,299.54929506252
0.352,299.54929025645
0.3525,299.549285425761
0.353,299.549280570805
0.3535,299.54927569193
0.354,299.549270789477
0.3545,299.549265863785
0.355,299.549260915184
0.3555,299.549255944003
0.356,299.549250950564
0.3565,299.549245935187
0.357,299.549240898185
0.3575,299.549235839866
0.358,299.549230760537
0.3585,299.549225660498
0.359,299.549220540044
0.3595,299.549215399468
0.36,299.549210239058
0.3605,299.549205059097
0.361,299.549199859866
0.3615,299.549194641639
0.362,299.549189404689
0.3625,299.549184149283
0.363,299.549178875686
0.3635,299.549173584158
0.364,299.549168274955
0.3645,299.54916294833
0.365,299.549157604532
0.3655,299.549152243808
0.366,299.549146866399
0.3665,299.549141472544
0.367,299.549136062479
0.3675,299.549130636435
0.368,299.549125194641
0.3685,299.549119737323
0.369,299.549114264702
0.3695,299.549108776998
0.37,299.549103274426
0.3705,299.5490977572
0.371,299.549092225529
0.3715,299.549086679619
0.372,299.549081119675
0.3725,299.549075545897
0.373,299.549069958484
0.3735,299.549064357631
0.374,299.549058743529
0.3745,299.549053116369
0.375,299.549047476338
0.3755,299.54904182362
0.376,299.549036158396
0.3765,299.549030480846
0.377,299.549024791146
0.3775,299.549019089469
0.378,299.549013375989
0.3785,299.549007650873
0.379,299.549001914288
0.3795,299.548996166398
0.38,299.548990407366
0.3805,299.54898463735
0.381,299.548978856508
0.3815,299.548973064996
0.382,299.548967262966
0.3825,299.548961450568
0.383,299.548955627951
0.3835,299.548949795262
0.384,299.548943952645
0.3845,299.548938100242
0.385,299.548932238193
0.3855,299.548926366636
0.386,299.548920485708
0.3865,299.548914595543
0.387,299.548908696273
0.3875,299.548902788028
0.388,299.548896870939
0.3885,299.54889094513
0.389,299.548885010727
0.3895,299.548879067853
0.39,299.54887311663
0.3905,299.548867157177
0.391,299.548861189612
0.3915,299.548855214052
0.392,299.548849230611
0.3925,299.548843239402
0.393,299.548837240536
0.3935,299.548831234124
0.394,299.548825220273
0.3945,299.54881919909
0.395,299.54881317068
0.3955,299.548807135147
0.396,299.548801092593
0.3965,299.548795043119
0.397,299.548788986824
0.3975,299.548782923806
0.398,299.54877685416
0.3985,299.548770777983
0.399,299.548764695368
0.3995,299.548758606408
0.4,299.548752511192
0.4005,299.548746409812
0.401,299.548740302356
0.4015,299.54873418891
0.402,299.548728069561
0.4025,299.548721944393
0.403,299.548715813491
0.4035,299.548709676935
0.404,299.548703534808
0.4045,299.54869738719
0.405,299.548691234159
0.4055,299.548685075793
0.406,299.548678912169
0.4065,299.548672743361
0.407,299.548666569446
0.4075,299.548660390495
0.408,299.548654206581
0.4085,299.548648017776
0.409,299.54864182415
0.4095,299.548635625772
0.41,299.548629422711
0.4105,299.548623215032
