"Physical Time: Physical Time (s)","Surface Average Rear Temp1 Monitor: Surface Average of Temperature (K)"
0.0005,873
0.001,872.999999999996
0.0015,872.999999999971
0.002,872.999999999904
0.0025,872.999999999859
0.003,873.00000000026
0.0035,873.000000002414
0.004,873.000000009385
0.0045,873.000000027297
0.005,873.000000067126
0.0055,873.000000147054
0.006,873.000000295416
0.0065,873.000000554258
0.007,873.000000983477
0.0075,873.000001665465
0.008,873.000002710264
0.0085,873.000004261015
0.009,873.000006499644
0.00950000000000001,873.000009652617
0.01,873.000013996648
0.0105,873.000019864168
0.011,873.000027648468
0.0115,873.000037808345
0.012,873.000050872172
0.0125,873.000067441266
0.013,873.000088192508
0.0135,873.000113880133
0.014,873.000145337203
0.0145,873.000183473906
0.015,873.000229278919
0.0155,873.000283816758
0.016,873.000348225439
0.0165,873.000423713316
0.017,873.000511555187
0.0175,873.000613087771
0.018,873.000729704633
0.0185,873.000862850608
0.019,873.001014015844
0.0195,873.001184729506
0.02,873.00137655325
0.0205,873.001591074522
0.021,873.00182989977
0.0215,873.00209464763
0.022,873.002386942154
0.0225,873.002708406143
0.023,873.003060654629
0.0235,873.003445288557
0.024,873.003863888724
0.0245,873.004318009979
0.025,873.004809175746
0.0255,873.005338872881
0.026,873.005908546871
0.0265,873.006519597416
0.027,873.007173374378
0.0275,873.007871174114
0.028,873.008614236201
0.0285,873.009403740535
0.029,873.010240804813
0.0295,873.011126482378
0.03,873.012061760439
0.0305,873.013047558621
0.031,873.014084727859
0.0315,873.015174049612
0.032,873.016316235376
0.0325,873.017511926484
0.033,873.018761694176
0.0335,873.020066039917
0.034,873.021425395955
0.0345,873.02284012608
0.035,873.024310526591
0.0355,873.025836827439
0.036,873.027419193531
0.0365,873.029057726178
0.037,873.030752464669
0.0375,873.032503387972
0.038,873.034310402315
0.0385,873.036173371694
0.039,873.0380921181
0.0395,873.040066399327
0.04,873.042095920796
0.0405,873.044180339269
0.041,873.046319265149
0.0415,873.048512264586
0.042,873.050758861562
0.0425,873.05305854
0.043,873.055410745861
0.0435,873.05781488925
0.044,873.060270346484
0.0445,873.062776462154
0.045,873.065332551139
0.0455,873.067937900594
0.046,873.070591771899
0.0465,873.073293402551
0.047,873.076042008025
0.0475,873.078836783578
0.048,873.081676906001
0.0485,873.084561535321
0.049,873.087489816448
0.0495,873.090460880764
0.05,873.093473847663
0.0505,873.096527826023
0.051,873.099621915636
0.0515,873.102755208569
0.052,873.105926790472
0.0525,873.109135741836
0.053,873.112381139189
0.0535,873.115662056234
0.054,873.118977564949
0.0545,873.122326736612
0.055,873.125708642793
0.0555,873.129122356286
0.056,873.132566951985
0.0565,873.136041507732
0.057,873.139545105097
0.0575,873.143076830121
0.058,873.146635774017
0.0585,873.150221033823
0.059,873.153831713016
0.0595,873.157466922084
0.06,873.16112577906
0.0605,873.164807410023
0.061,873.168510949553
0.0615,873.172235541161
0.062,873.17598033768
0.0625,873.17974450163
0.063,873.183527205542
0.0635,873.187327632265
0.064,873.191144975238
0.0645,873.194978438734
0.065,873.198827238085
0.0655,873.202690599877
0.066,873.206567762124
0.0665,873.21045797442
0.067,873.214360498069
0.0675,873.2182746062
0.068,873.222199583854
0.0685,873.226134728064
0.069,873.230079347906
0.0695,873.23403276455
0.07,873.237994311279
0.0705,873.241963333508
0.071,873.245939188776
0.0715000000000001,873.249921246741
0.0720000000000001,873.253908889153
0.0725000000000001,873.257901509814
0.0730000000000001,873.261898514537
0.0735000000000001,873.26589932109
0.0740000000000001,873.269903359128
0.0745000000000001,873.273910070124
0.0750000000000001,873.277918907287
0.0755000000000001,873.281929335472
0.0760000000000001,873.285940831088
0.0765000000000001,873.289952882
0.0770000000000001,873.293964987413
0.0775000000000001,873.297976657772
0.0780000000000001,873.30198741464
0.0785000000000001,873.305996790576
0.0790000000000001,873.310004329013
0.0795000000000001,873.314009584131
0.0800000000000001,873.318012120721
0.0805000000000001,873.322011514057
0.0810000000000001,873.326007349753
0.0815000000000001,873.32999922363
0.0820000000000001,873.33398674157
0.0825000000000001,873.337969519377
0.0830000000000001,873.341947182631
0.0835000000000001,873.345919366543
0.0840000000000001,873.349885715811
0.0845000000000001,873.35384588447
0.0850000000000001,873.357799535747
0.0855000000000001,873.361746341911
0.0860000000000001,873.365685984128
0.0865000000000001,873.369618152312
0.0870000000000001,873.373542544974
0.0875000000000001,873.37745886908
0.0880000000000001,873.381366839899
0.0885000000000001,873.385266180863
0.0890000000000001,873.389156623411
0.0895000000000001,873.393037906854
0.0900000000000001,873.396909778227
0.0905000000000001,873.400771992144
0.0910000000000001,873.404624310657
0.0915000000000001,873.408466503119
0.0920000000000001,873.412298346038
0.0925000000000001,873.416119622943
0.0930000000000001,873.419930124245
0.0935000000000001,873.423729647102
0.0940000000000001,873.427517995284
0.0945000000000001,873.431294979043
0.0950000000000001,873.435060414977
0.0955000000000001,873.438814125904
0.0960000000000001,873.442555940736
0.0965000000000001,873.446285694346
0.0970000000000001,873.450003227449
0.0975000000000001,873.453708386477
0.0980000000000001,873.457401023458
0.0985000000000001,873.461080995896
0.0990000000000001,873.464748166655
0.0995000000000001,873.46840240384
0.1,873.472043580685
0.1005,873.475671575438
0.101,873.479286271257
0.1015,873.482887556088
0.102,873.486475322574
0.1025,873.490049467933
0.103,873.493609893869
0.1035,873.49715650646
0.104,873.500689216062
0.1045,873.504207937208
0.105,873.507712588516
0.1055,873.511203092586
0.106,873.514679375916
0.1065,873.518141368802
0.107,873.521589005253
0.1075,873.525022222901
0.108,873.528440962913
0.1085,873.531845169909
0.109,873.535234791875
0.1095,873.538609780083
0.11,873.541970089011
0.1105,873.545315676261
0.111,873.548646502488
0.1115,873.551962531319
0.112,873.555263729276
0.1125,873.558550065712
0.113,873.561821512734
0.1135,873.565078045132
0.114,873.568319640314
0.1145,873.571546278237
0.115,873.574757941341
0.1155,873.577954614485
0.116,873.581136284883
0.1165,873.584302942047
0.117,873.587454577718
0.1175,873.590591185816
0.118,873.593712762371
0.1185,873.596819305479
0.119,873.599910815239
0.1195,873.602987293696
0.12,873.606048744797
0.1205,873.609095174328
0.121,873.612126589873
0.1215,873.615143000759
0.122,873.618144418004
0.1225,873.62113085428
0.123,873.624102323854
0.1235,873.62705884255
0.124,873.630000427704
0.1245,873.632927098115
0.125,873.635838874011
0.1255,873.638735776999
0.126,873.641617830029
0.1265,873.644485057351
0.127,873.647337484481
0.1275,873.650175138158
0.128,873.652998046308
0.1285,873.655806238009
0.129,873.658599743455
0.1295,873.661378593921
0.13,873.664142821727
0.1305,873.66689246021
0.131,873.669627543685
0.1315,873.67234810742
0.132,873.6750541876
0.1325,873.6777458213
0.133,873.680423046453
0.1335,873.683085901822
0.134,873.685734426976
0.1345,873.688368662253
0.135,873.690988648746
0.1355,873.693594428263
0.136,873.696186043314
0.1365,873.698763537077
0.137,873.701326953379
0.1375,873.70387633667
0.138,873.706411731999
0.1385,873.708933184994
0.139,873.711440741836
0.1395,873.713934449245
0.14,873.716414354447
0.1405,873.718880505168
0.141,873.721332949599
0.1415,873.723771736388
0.142,873.726196914616
0.1425,873.728608533781
0.143,873.731006643773
0.1435,873.733391294868
0.144,873.735762537699
0.1445,873.738120423247
0.145,873.740465002821
0.1455,873.742796328044
0.146,873.745114450835
0.1465,873.747419423398
0.147,873.749711298201
0.1475,873.751990127969
0.148,873.754255965663
0.1485,873.756508864471
0.149,873.758748877792
0.1495,873.760976059226
0.15,873.763190462557
0.1505,873.765392141746
0.151,873.767581150913
0.1515,873.769757544331
0.152,873.77192137641
0.1525,873.77407270169
0.153,873.776211574826
0.1535,873.778338050583
0.154,873.780452183818
0.1545,873.782554029477
0.155,873.784643642584
0.1555,873.786721078228
0.156,873.788786391556
0.1565,873.790839637767
0.157,873.792880872099
0.1575,873.794910149821
0.158,873.796927526227
0.1585,873.798933056629
0.159,873.800926796344
0.1595,873.802908800691
0.16,873.804879124982
0.1605,873.806837824516
0.161,873.808784954571
0.1615,873.810720570396
0.162,873.81264472721
0.1625,873.814557480186
0.163,873.816458884456
0.1635,873.818348995095
0.164,873.820227867124
0.1645,873.822095555495
0.165,873.823952115097
0.1655,873.825797600738
0.166,873.82763206715
0.1665,873.829455568979
0.167,873.831268160782
0.1675,873.83306989702
0.168,873.834860832058
0.1685,873.836641020153
0.169,873.83841051546
0.1695,873.840169372018
0.17,873.841917643753
0.1705,873.843655384468
0.171,873.845382647846
0.1715,873.847099487443
0.172,873.848805956682
0.1725,873.850502108853
0.173,873.85218799711
0.1735,873.853863674466
0.174,873.855529193788
0.1745,873.857184607803
0.175,873.858829969083
0.1755,873.860465330049
0.176,873.862090742969
0.1765,873.863706259954
0.177,873.865311932953
0.1775,873.866907813755
0.178,873.868493953984
0.1785,873.870070405097
0.179,873.871637218384
0.1795,873.873194444962
0.18,873.874742135778
0.1805,873.876280341602
0.181,873.877809113028
0.1815,873.879328500474
0.182,873.880838554176
0.1825,873.882339324191
0.183,873.883830860391
0.1835,873.885313212465
0.184,873.886786429916
0.1845,873.88825056206
0.185,873.889705658025
0.1855,873.891151766749
0.186,873.892588936982
0.1865,873.894017217278
0.187,873.895436656001
0.1875,873.896847301323
0.188,873.898249201217
0.1885,873.899642403466
0.189,873.901026955652
0.1895,873.902402905163
0.19,873.90376986447
0.1905,873.905128352238
0.191,873.906478434396
0.1915,873.907820144429
0.192,873.909153516966
0.1925,873.910478590375
0.193,873.911795405579
0.1935,873.913104004979
0.194,873.91440443179
0.1945,873.915696729654
0.195,873.91698094242
0.1955,873.918257114013
0.196,873.919525288345
0.1965,873.920785509275
0.197,873.922037820564
0.1975,873.92328226586
0.198,873.924518888675
0.1985,873.925747732374
0.199,873.92696884017
0.1995,873.928182255108
0.2,873.929388020065
0.2005,873.930586177745
0.201,873.931776770671
0.2015,873.932959841188
0.202,873.934135431452
0.2025,873.935303583435
0.203,873.93646433892
0.2035,873.9376177395
0.204,873.938763826575
0.2045,873.939902641356
0.205,873.941034224855
0.2055,873.942158617895
0.206,873.943275861104
0.2065,873.94438599491
0.207,873.945489059551
0.2075,873.946585095066
0.208,873.9476741413
0.2085,873.948756237902
0.209,873.949831424325
0.2095,873.950899739824
0.21,873.951961223462
0.2105,873.953015914104
0.211,873.95406385042
0.2115,873.955105070887
0.212,873.956139613784
0.2125,873.957167517198
0.213,873.95818881902
0.2135,873.959203556949
0.214,873.96021176849
0.2145,873.961213490955
0.215,873.962208761462
0.2155,873.963197616941
0.216,873.964180094125
0.2165,873.96515622956
0.217,873.9661260596
0.2175,873.96708962041
0.218,873.968046947963
0.2185,873.968998078046
0.219,873.969943046255
0.2195,873.970881888001
0.22,873.971814638505
0.2205,873.972741332803
0.221,873.973662005745
0.2215,873.974576691994
0.222,873.975485426031
0.2225,873.976388242151
0.223,873.977285174465
0.2235,873.978176256903
0.224,873.979061523211
0.2245,873.979941006954
0.225,873.980814741518
0.2255,873.981682760105
0.226,873.982545095741
0.2265,873.983401781273
0.227,873.984252849366
0.2275,873.985098332512
0.228,873.985938263024
0.2285,873.986772673041
0.229,873.987601594524
0.2295,873.988425059261
0.23,873.989243098866
0.2305,873.990055744779
0.231,873.990863028268
0.2315,873.99166498043
0.232,873.99246163219
0.2325,873.993253014305
0.233,873.994039157357
0.2335,873.994820091766
0.234,873.995595847778
0.2345,873.996366455477
0.235,873.997131944776
0.2355,873.997892345425
0.236,873.998647687008
0.2365,873.999397998943
0.237,874.000143310487
0.2375,874.000883650732
0.238,874.001619048609
0.2385,874.002349532888
0.239,874.003075132178
0.2395,874.003795874926
0.24,874.004511789423
0.2405,874.0052229038
0.241,874.005929246032
0.2415,874.006630843934
0.242,874.007327725166
0.2425,874.008019917234
0.243,874.008707447488
0.2435,874.009390343126
0.244,874.010068631189
0.2445,874.010742338569
0.245,874.011411492005
0.2455,874.012076118085
0.246,874.012736243248
0.2465,874.013391893781
0.247,874.014043095823
0.2475,874.014689875367
0.248,874.015332258259
0.2485,874.015970270194
0.249,874.016603936726
0.2495,874.017233283261
0.25,874.017858335063
0.2505,874.018479117249
0.251,874.019095654797
0.2515,874.019707972541
0.252,874.020316095173
0.2525,874.020920047246
0.253,874.02151985317
0.2535,874.02211553722
0.254,874.02270712353
0.2545,874.023294636095
0.255,874.023878098775
0.2555,874.024457535293
0.256,874.025032969236
0.2565,874.025604424057
0.257,874.026171923073
0.2575,874.02673548947
0.258,874.027295146296
0.2585,874.027850916474
0.259,874.028402822791
0.2595,874.028950887904
0.26,874.02949513434
0.2605,874.030035584496
0.261,874.030572260642
0.2615,874.031105184918
0.262,874.031634379339
0.2625,874.032159865791
0.263,874.032681666035
0.2635,874.033199801707
0.264,874.033714294318
0.2645,874.034225165255
0.265,874.034732435781
0.2655,874.03523612704
0.266,874.035736260048
0.2665,874.036232855705
0.267,874.036725934789
0.2675,874.037215517956
0.268,874.037701625743
0.2685,874.038184278571
0.269,874.038663496742
0.2695,874.039139300439
0.27,874.039611709728
0.2705,874.040080744563
0.271,874.040546424777
0.2715,874.041008770092
0.272,874.041467800114
0.2725,874.041923534337
0.273,874.042375992141
0.2735,874.042825192793
0.274,874.04327115545
0.2745,874.043713899156
0.275,874.044153442846
0.2755,874.044589805346
0.276,874.04502300537
0.2765,874.045453061524
0.277,874.045879992308
0.2775,874.046303816115
0.278,874.046724551226
0.2785,874.047142215822
0.279,874.047556827974
0.2795,874.047968405651
0.28,874.048376966716
0.2805,874.048782528926
0.281,874.04918510994
0.2815,874.049584727309
0.282,874.049981398486
0.2825,874.050375140819
0.283,874.050765971557
0.2835,874.051153907848
0.284,874.05153896674
0.2845,874.051921165184
0.285,874.052300520027
0.2855,874.052677048023
0.286,874.053050765826
0.2865,874.053421689993
0.287,874.053789836985
0.2875,874.054155223167
0.288,874.054517864809
0.2885,874.054877778084
0.289,874.055234979073
0.2895,874.055589483762
0.29,874.055941308044
0.2905,874.05629046772
0.291,874.056636978498
0.2915,874.056980855993
0.292,874.05732211573
0.2925,874.057660773146
0.293,874.057996843584
0.2935,874.058330342298
0.294,874.058661284453
0.2945,874.058989685128
0.295,874.05931555931
0.2955,874.059638921902
0.296,874.059959787717
0.2965,874.060278171483
0.297,874.060594087841
0.2975,874.060907551347
0.298,874.061218576472
0.2985,874.061527177602
0.299,874.061833369039
0.2995,874.062137165
0.3,874.062438579622
0.3005,874.062737626956
0.301,874.063034320973
0.3015,874.063328675561
0.302,874.063620704526
0.3025,874.063910421597
0.303,874.064197840417
0.3035,874.064482974553
0.304,874.064765837492
0.3045,874.065046442642
0.305,874.065324803331
0.3055,874.06560093281
0.306,874.065874844253
0.3065,874.066146550755
0.307,874.066416065337
0.3075,874.066683400942
0.308,874.066948570436
0.3085,874.067211586613
0.309,874.067472462187
0.3095,874.067731209803
0.31,874.067987842029
0.3105,874.068242371358
0.311,874.068494810214
0.3115,874.068745170944
0.312,874.068993465823
0.3125,874.069239707058
0.313,874.06948390678
0.3135,874.069726077049
0.314,874.069966229858
0.3145,874.070204377128
0.315,874.070440530707
0.3155,874.070674702377
0.316,874.07090690385
0.3165,874.071137146769
0.317,874.07136544271
0.3175,874.071591803178
0.318,874.071816239613
0.3185,874.072038763388
0.319,874.072259385807
0.3195,874.072478118111
0.32,874.072694971472
0.3205,874.072909956998
0.321,874.073123085731
0.3215,874.073334368649
0.322,874.073543816665
0.3225,874.073751440628
0.323,874.073957251324
0.3235,874.074161259474
0.324,874.074363475738
0.3245,874.074563910712
0.325,874.074762574929
0.3255,874.074959478865
0.326,874.075154632927
0.3265,874.075348047467
0.327,874.075539732774
0.3275,874.075729699075
0.328,874.07591795654
0.3285,874.076104515277
0.329,874.076289385335
0.3295,874.076472576706
0.33,874.07665409932
0.3305,874.07683396305
0.331,874.077012177712
0.3315,874.077188753064
0.332,874.077363698805
0.3325,874.07753702458
0.333,874.077708739975
0.3335,874.077878854519
0.334,874.078047377687
0.3345,874.078214318898
0.335,874.078379687515
0.3355,874.078543492846
0.336,874.078705744145
0.3365,874.07886645061
0.337,874.079025621388
0.3375,874.079183265569
0.338,874.07933939219
0.3385,874.079494010236
0.339,874.079647128641
0.3395,874.079798756282
0.34,874.079948901988
0.3405,874.080097574532
0.341,874.080244782639
0.3415,874.080390534983
0.342,874.080534840182
0.3425,874.08067770681
0.343,874.080819143386
0.3435,874.080959158378
0.344,874.081097760211
0.3445,874.081234957252
0.345,874.081370757825
0.3455,874.081505170202
0.346,874.081638202607
0.3465,874.081769863215
0.347,874.081900160155
0.3475,874.082029101507
0.348,874.082156695302
0.3485,874.082282949526
0.349,874.082407872117
0.3495,874.082531470966
0.35,874.082653753919
0.3505,874.082774728774
0.351,874.082894403284
0.3515,874.083012785157
0.352,874.083129882055
0.3525,874.083245701596
0.353,874.083360251349
0.3535,874.083473538845
0.354,874.083585571566
0.3545,874.083696356951
0.355,874.083805902396
0.3555,874.083914215254
0.356,874.084021302833
0.3565,874.084127172399
0.357,874.084231831174
0.3575,874.08433528634
0.358,874.084437545036
0.3585,874.084538614356
0.359,874.084638501356
0.3595,874.084737213049
0.36,874.084834756408
0.3605,874.084931138361
0.361,874.0850263658
0.3615,874.085120445575
0.362,874.085213384494
0.3625,874.085305189326
0.363,874.085395866801
0.3635,874.085485423609
0.364,874.0855738664
0.3645,874.085661201784
0.365,874.085747436336
0.3655,874.085832576586
0.366,874.085916629032
0.3665,874.08599960013
0.367,874.086081496299
0.3675,874.08616232392
0.368,874.086242089337
0.3685,874.086320798856
0.369,874.086398458746
0.3695,874.086475075241
0.37,874.086550654534
0.3705,874.086625202785
0.371,874.086698726118
0.3715,874.086771230619
0.372,874.086842722339
0.3725,874.086913207294
0.373,874.086982691463
0.3735,874.087051180792
0.374,874.087118681189
0.3745,874.087185198531
0.375,874.087250738658
0.3755,874.087315307376
0.376,874.087378910457
0.3765,874.087441553638
0.377,874.087503242624
0.3775,874.087563983086
0.378,874.087623780661
0.3785,874.087682640952
0.379,874.087740569531
0.3795,874.087797571936
0.38,874.087853653673
0.3805,874.087908820215
0.381,874.087963077003
0.3815,874.088016429447
0.382,874.088068882922
0.3825,874.088120442775
0.383,874.08817111432
0.3835,874.08822090284
0.384,874.088269813585
0.3845,874.088317851778
0.385,874.088365022607
0.3855,874.088411331234
0.386,874.088456782786
0.3865,874.088501382362
0.387,874.088545135033
0.3875,874.088588045835
0.388,874.088630119778
0.3885,874.088671361844
0.389,874.088711776983
0.3895,874.088751370114
0.39,874.088790146133
0.3905,874.0888281099
0.391,874.088865266253
0.3915,874.088901619996
0.392,874.08893717591
0.3925,874.088971938744
0.393,874.089005913219
0.3935,874.089039104031
0.394,874.089071515846
0.3945,874.089103153304
0.395,874.089134021015
0.3955,874.089164123566
0.396,874.089193465514
0.3965,874.089222051388
0.397,874.089249885695
0.3975,874.089276972913
0.398,874.089303317491
0.3985,874.089328923855
0.399,874.089353796406
0.3995,874.089377939514
0.4,874.089401357531
0.4005,874.089424054774
0.401,874.089446035542
0.4015,874.089467304106
0.402,874.089487864712
0.4025,874.089507721581
0.403,874.089526878907
0.4035,874.089545340866
0.404,874.089563111601
0.4045,874.089580195235
0.405,874.089596595868
0.4055,874.089612317573
0.406,874.0896273644
0.4065,874.089641740375
0.407,874.089655449501
0.4075,874.089668495756
0.408,874.089680883097
0.4085,874.089692615455
0.409,874.08970369674
0.4095,874.089714130837
0.41,874.089723921611
0.4105,874.0897330729
0.411,874.089741588524
