"Physical Time: Physical Time (s)","Surface Average Rear Temp1 Monitor: Surface Average of Temperature (K)"
0.0005,873.000000000004
0.001,873.000000000014
0.0015,873.000000000023
0.002,872.999999999972
0.0025,872.999999999673
0.003,872.999999998813
0.0035,872.999999997061
0.004,872.999999994474
0.0045,872.999999992305
0.005,872.999999994357
0.0055,873.000000008985
0.006,873.000000051824
0.0065,873.00000014927
0.007,873.000000342694
0.0075,873.000000693324
0.008,873.00000128772
0.0085,873.000002243673
0.009,873.000003716415
0.00950000000000001,873.00000590494
0.01,873.000009058311
0.0105,873.000013481723
0.011,873.000019542225
0.0115,873.000027673971
0.012,873.00003838256
0.0125,873.000052249118
0.013,873.000069933155
0.0135,873.000092174677
0.014,873.000119795367
0.0145,873.000153698831
0.015,873.000194869922
0.0155,873.000244373142
0.016,873.000303350193
0.0165,873.000373016729
0.017,873.000454658329
0.0175,873.000549625846
0.018,873.000659330124
0.0185,873.000785236217
0.019,873.0009288572
0.0195,873.001091747619
0.02,873.001275496709
0.0205,873.001481721422
0.021,873.001712059368
0.0215,873.001968161736
0.022,873.002251686254
0.0225,873.002564290261
0.023,873.002907623953
0.0235,873.003283323815
0.024,873.003693006337
0.0245,873.00413826201
0.025,873.004620649653
0.0255,873.005141691077
0.026,873.005702866139
0.0265,873.006305608148
0.027,873.006951299709
0.0275,873.007641268914
0.028,873.00837678598
0.0285,873.009159060248
0.029,873.009989237596
0.0295,873.010868398219
0.03,873.011797554802
0.0305,873.012777651028
0.031,873.013809560454
0.0315,873.014894085698
0.032,873.016031957951
0.0325,873.01722383678
0.033,873.018470310204
0.0335,873.019771895027
0.034,873.021129037419
0.0345,873.022542113705
0.035,873.024011431368
0.0355,873.025537230219
0.036,873.027119683752
0.0365,873.028758860883
0.037,873.03045484523
0.0375,873.032207625886
0.038,873.034017126581
0.0385,873.035883212971
0.039,873.037805695302
0.0395,873.039784330428
0.04,873.04181882382
0.0405,873.043908831626
0.041,873.046053962803
0.0415,873.048253781255
0.042,873.05050780801
0.0425,873.052815523379
0.043,873.05517636913
0.0435,873.057589750632
0.044,873.060055038963
0.0445,873.062571573033
0.045,873.065138661623
0.0455,873.067755585424
0.046,873.07042159901
0.0465,873.073135932783
0.047,873.07589779485
0.0475,873.078706372869
0.048,873.081560835834
0.0485,873.084460335796
0.049,873.087404009548
0.0495,873.090390980234
0.05,873.09342035891
0.0505,873.096491246046
0.051,873.099602732974
0.0515,873.102753903263
0.052,873.105943834065
0.0525,873.109171597352
0.053,873.112436261169
0.0535,873.115736890765
0.054,873.119072549705
0.0545,873.122442300912
0.055,873.125845207674
0.0555,873.129280334574
0.056,873.132746748389
0.0565,873.136243518934
0.057,873.139769719858
0.0575,873.143324429389
0.058,873.146906731037
0.0585,873.150515714263
0.059,873.154150475082
0.0595,873.157810116655
0.06,873.161493749812
0.0605,873.16520049356
0.061,873.16892947555
0.0615,873.17267983249
0.062,873.176450710548
0.0625,873.180241265719
0.063,873.184050664148
0.0635,873.18787808243
0.064,873.191722707887
0.0645,873.195583738816
0.065,873.199460384705
0.0655,873.203351866429
0.066,873.207257416429
0.0665,873.211176278851
0.067,873.215107709684
0.0675,873.219050976866
0.068,873.223005360378
0.0685,873.226970152313
0.069,873.230944656929
0.0695,873.234928190699
0.07,873.238920082323
0.0705,873.242919672745
0.071,873.246926315156
0.0715000000000001,873.250939374964
0.0720000000000001,873.254958229779
0.0725000000000001,873.258982269371
0.0730000000000001,873.26301089562
0.0735000000000001,873.267043522459
0.0740000000000001,873.271079575811
0.0745000000000001,873.275118493503
0.0750000000000001,873.279159725198
0.0755000000000001,873.283202732291
0.0760000000000001,873.287246987815
0.0765000000000001,873.291291976349
0.0770000000000001,873.295337193894
0.0775000000000001,873.299382147766
0.0780000000000001,873.303426356479
0.0785000000000001,873.307469349619
0.0790000000000001,873.311510667722
0.0795000000000001,873.315549862136
0.0800000000000001,873.319586494891
0.0805000000000001,873.323620138572
0.0810000000000001,873.327650376159
0.0815000000000001,873.331676800908
0.0820000000000001,873.335699016195
0.0825000000000001,873.33971663538
0.0830000000000001,873.343729281651
0.0835000000000001,873.347736587884
0.0840000000000001,873.351738196495
0.0845000000000001,873.355733759294
0.0850000000000001,873.359722937324
0.0855000000000001,873.363705400725
0.0860000000000001,873.367680828579
0.0865000000000001,873.371648908758
0.0870000000000001,873.375609337782
0.0875000000000001,873.379561820662
0.0880000000000001,873.383506070761
0.0885000000000001,873.387441809632
0.0890000000000001,873.391368766886
0.0895000000000001,873.395286680037
0.0900000000000001,873.399195294359
0.0905000000000001,873.403094362743
0.0910000000000001,873.40698364555
0.0915000000000001,873.410862910475
0.0920000000000001,873.414731932397
0.0925000000000001,873.418590493251
0.0930000000000001,873.422438381879
0.0935000000000001,873.426275393904
0.0940000000000001,873.430101331584
0.0945000000000001,873.433916003687
0.0950000000000001,873.437719225355
0.0955000000000001,873.441510817973
0.0960000000000001,873.445290609046
0.0965000000000001,873.449058432064
0.0970000000000001,873.452814126378
0.0975000000000001,873.456557537083
0.0980000000000001,873.460288514889
0.0985000000000001,873.464006916006
0.0990000000000001,873.467712602018
0.0995000000000001,873.471405439775
0.1,873.475085301276
0.1005,873.478752063548
0.101,873.482405608547
0.1015,873.486045823036
0.102,873.489672598492
0.1025,873.493285830985
0.103,873.496885421082
0.1035,873.500471273743
0.104,873.504043298223
0.1045,873.507601407964
0.105,873.511145520512
0.1055,873.514675557404
0.106,873.518191444095
0.1065,873.521693109847
0.107,873.525180487646
0.1075,873.528653514116
0.108,873.532112129434
0.1085,873.535556277232
0.109,873.538985904524
0.1095,873.542400961624
0.11,873.54580140206
0.1105,873.549187182498
0.111,873.552558262661
0.1115,873.55591460526
0.112,873.559256175913
0.1125,873.562582943074
0.113,873.565894877962
0.1135,873.569191954493
0.114,873.572474149202
0.1145,873.575741441193
0.115,873.578993812049
0.1155,873.582231245794
0.116,873.585453728806
0.1165,873.588661249776
0.117,873.591853799626
0.1175,873.595031371472
0.118,873.598193960543
0.1185,873.601341564144
0.119,873.604474181589
0.1195,873.607591814152
0.12,873.610694465007
0.1205,873.613782139181
0.121,873.616854843506
0.1215,873.61991258656
0.122,873.622955378626
0.1225,873.625983231638
0.123,873.628996159143
0.1235,873.631994176244
0.124,873.634977299567
0.1245,873.637945547205
0.125,873.640898938688
0.1255,873.64383749493
0.126,873.646761238196
0.1265,873.649670192059
0.127,873.652564381358
0.1275,873.655443832169
0.128,873.658308571754
0.1285,873.661158628536
0.129,873.663994032065
0.1295,873.666814812966
0.13,873.669621002927
0.1305,873.672412634652
0.131,873.675189741831
0.1315,873.67795235911
0.132,873.680700522061
0.1325,873.68343426715
0.133,873.686153631707
0.1335,873.688858653898
0.134,873.691549372697
0.1345,873.694225827856
0.135,873.696888059882
0.1355,873.699536110012
0.136,873.702170020183
0.1365,873.704789833005
0.137,873.707395591745
0.1375,873.709987340293
0.138,873.712565123154
0.1385,873.715128985402
0.139,873.71767897268
0.1395,873.720215131172
0.14,873.722737507574
0.1405,873.725246149078
0.141,873.727741103359
0.1415,873.730222418548
0.142,873.732690143211
0.1425,873.735144326337
0.143,873.737585017317
0.1435,873.740012265923
0.144,873.742426122297
0.1445,873.744826636928
0.145,873.747213860643
0.1455,873.749587844581
0.146,873.751948640187
0.1465,873.754296299194
0.147,873.7566308736
0.1475,873.758952415666
0.148,873.761260977896
0.1485,873.763556613025
0.149,873.765839373998
0.1495,873.768109313972
0.15,873.770366486287
0.1505,873.772610944465
0.151,873.774842742195
0.1515,873.777061933321
0.152,873.779268571825
0.1525,873.781462711826
0.153,873.783644407564
0.1535,873.785813713385
0.154,873.787970683743
0.1545,873.790115373175
0.155,873.792247836303
0.1555,873.794368127818
0.156,873.796476302476
0.1565,873.798572415085
0.157,873.800656520493
0.1575,873.802728673591
0.158,873.804788929292
0.1585,873.806837342535
0.159,873.808873968262
0.1595,873.810898861426
0.16,873.812912076976
0.1605,873.814913669851
0.161,873.816903694971
0.1615,873.818882207233
0.162,873.820849261501
0.1625,873.822804912612
0.163,873.824749215346
0.1635,873.826682224445
0.164,873.828603994588
0.1645,873.830514580402
0.165,873.832414036441
0.1655,873.834302417191
0.166,873.836179777065
0.1665,873.838046170383
0.167,873.839901651391
0.1675,873.841746274237
0.168,873.843580092975
0.1685,873.84540316156
0.169,873.847215533842
0.1695,873.849017263564
0.17,873.850808404351
0.1705,873.852589009718
0.171,873.854359133054
0.1715,873.856118827632
0.172,873.857868146588
0.1725,873.859607142935
0.173,873.861335869548
0.1735,873.863054379164
0.174,873.864762724383
0.1745,873.866460957659
0.175,873.868149131301
0.1755,873.869827297466
0.176,873.871495508166
0.1765,873.873153815249
0.177,873.874802270416
0.1775,873.876440925202
0.178,873.878069830985
0.1785,873.879689038974
0.179,873.881298600217
0.1795,873.882898565592
0.18,873.884488985809
0.1805,873.886069911403
0.181,873.88764139274
0.1815,873.889203480005
0.182,873.890756223209
0.1825,873.892299672183
0.183,873.893833876583
0.1835,873.895358885876
0.184,873.896874749351
0.1845,873.898381516108
0.185,873.899879235069
0.1855,873.901367426061
0.186,873.90284672303
0.1865,873.90431719136
0.187,873.905778861167
0.1875,873.907231765004
0.188,873.908675940452
0.1885,873.910111428492
0.189,873.911538272115
0.1895,873.912956515442
0.19,873.914366203229
0.1905,873.915767380569
0.191,873.917160092716
0.1915,873.918544384973
0.192,873.919920302636
0.1925,873.921287890936
0.193,873.922647195022
0.1935,873.923998259924
0.194,873.92534113055
0.1945,873.92667585167
0.195,873.9280024679
0.1955,873.929321023707
0.196,873.930631563387
0.1965,873.931934131074
0.197,873.933228770728
0.1975,873.934515526131
0.198,873.935794440888
0.1985,873.937065558421
0.199,873.938328921965
0.1995,873.939584574572
0.2,873.940832559107
0.2005,873.942072918239
0.201,873.943305694452
0.2015,873.944530930032
0.202,873.945748667083
0.2025,873.946958947502
0.203,873.948161812999
0.2035,873.949357305089
0.204,873.950545465092
0.2045,873.951726334127
0.205,873.952899953126
0.2055,873.954066362819
0.206,873.955225603739
0.2065,873.95637771623
0.207,873.957522740433
0.2075,873.958660716292
0.208,873.959791683563
0.2085,873.960915681798
0.209,873.962032750357
0.2095,873.963142928407
0.21,873.964246254914
0.2105,873.965342768655
0.211,873.966432508207
0.2115,873.967515511956
0.212,873.968591818096
0.2125,873.969661464621
0.213,873.970724489339
0.2135,873.971780929859
0.214,873.972830823604
0.2145,873.973874207797
0.215,873.97491111948
0.2155,873.975941595497
0.216,873.976965672502
0.2165,873.97798338696
0.217,873.978994775147
0.2175,873.97999987315
0.218,873.98099871687
0.2185,873.981991342016
0.219,873.98297778411
0.2195,873.983958078494
0.22,873.984932260315
0.2205,873.985900364542
0.221,873.986862425952
0.2215,873.987818479147
0.222,873.988768558536
0.2225,873.989712698352
0.223,873.990650932641
0.2235,873.991583295272
0.224,873.992509819929
0.2245,873.993430540117
0.225,873.994345489162
0.2255,873.99525470021
0.226,873.99615820623
0.2265,873.997056040012
0.227,873.997948234168
0.2275,873.998834821138
0.228,873.999715833182
0.2285,874.000591302388
0.229,874.001461260668
0.2295,874.00232573976
0.23,874.00318477123
0.2305,874.004038386475
0.231,874.004886616714
0.2315,874.005729493004
0.232,874.006567046224
0.2325,874.007399307088
0.233,874.008226306139
0.2335,874.009048073757
0.234,874.009864640149
0.2345,874.010676035358
0.235,874.011482289265
0.2355,874.012283431582
0.236,874.013079491856
0.2365,874.013870499476
0.237,874.01465648366
0.2375,874.015437473474
0.238,874.016213497816
0.2385,874.016984585425
0.239,874.017750764881
0.2395,874.018512064603
0.24,874.019268512856
0.2405,874.020020137746
0.241,874.020766967217
0.2415,874.021509029064
0.242,874.022246350927
0.2425,874.02297896028
0.243,874.023706884459
0.2435,874.024430150638
0.244,874.025148785838
0.2445,874.025862816932
0.245,874.026572270642
0.2455,874.027277173538
0.246,874.02797755204
0.2465,874.028673432421
0.247,874.029364840807
0.2475,874.030051803175
0.248,874.030734345354
0.2485,874.031412493031
0.249,874.032086271746
0.2495,874.032755706897
0.25,874.033420823732
0.2505,874.034081647362
0.251,874.034738202757
0.2515,874.035390514741
0.252,874.036038607999
0.2525,874.036682507076
0.253,874.03732223638
0.2535,874.037957820176
0.254,874.038589282596
0.2545,874.039216647631
0.255,874.039839939137
0.2555,874.040459180837
0.256,874.041074396311
0.2565,874.041685609016
0.257,874.042292842265
0.2575,874.042896119246
0.258,874.043495463009
0.2585,874.044090896475
0.259,874.044682442432
0.2595,874.045270123545
0.26,874.045853962339
0.2605,874.04643398122
0.261,874.047010202459
0.2615,874.047582648202
0.262,874.048151340466
0.2625,874.048716301148
0.263,874.049277552015
0.2635,874.049835114708
0.264,874.050389010747
0.2645,874.050939261529
0.265,874.051485888326
0.2655,874.052028912285
0.266,874.052568354441
0.2665,874.0531042357
0.267,874.053636576848
0.2675,874.054165398558
0.268,874.054690721379
0.2685,874.055212565741
0.269,874.055730951962
0.2695,874.056245900234
0.27,874.056757430645
0.2705,874.057265563154
0.271,874.057770317616
0.2715,874.058271713766
0.272,874.058769771227
0.2725,874.059264509507
0.273,874.059755948002
0.2735,874.060244106002
0.274,874.060729002675
0.2745,874.061210657088
0.275,874.061689088191
0.2755,874.06216431483
0.276,874.062636355738
0.2765,874.063105229545
0.277,874.063570954765
0.2775,874.064033549813
0.278,874.064493032993
0.2785,874.064949422507
0.279,874.065402736446
0.2795,874.065852992802
0.28,874.06630020946
0.2805,874.066744404201
0.281,874.067185594705
0.2815,874.067623798551
0.282,874.068059033208
0.2825,874.068491316057
0.283,874.068920664364
0.2835,874.069347095309
0.284,874.069770625958
0.2845,874.070191273293
0.285,874.070609054185
0.2855,874.071023985413
0.286,874.07143608366
0.2865,874.071845365507
0.287,874.072251847444
0.2875,874.072655545863
0.288,874.073056477061
0.2885,874.073454657241
0.289,874.073850102508
0.2895,874.074242828883
0.29,874.074632852283
0.2905,874.075020188539
0.291,874.075404853386
0.2915,874.075786862473
0.292,874.076166231354
0.2925,874.076542975495
0.293,874.07691711027
0.2935,874.077288650963
0.294,874.077657612773
0.2945,874.078024010805
0.295,874.078387860081
0.2955,874.078749175534
0.296,874.079107972011
0.2965,874.079464264269
0.297,874.079818066981
0.2975,874.080169394741
0.298,874.080518262047
0.2985,874.080864683321
0.299,874.081208672897
0.2995,874.081550245026
0.3,874.081889413877
0.3005,874.082226193536
0.301,874.082560598009
0.3015,874.082892641217
0.302,874.083222337
0.3025,874.083549699122
0.303,874.083874741259
0.3035,874.084197477019
0.304,874.084517919915
0.3045,874.084836083396
0.305,874.085151980825
0.3055,874.085465625487
0.306,874.085777030593
0.3065,874.086086209273
0.307,874.086393174585
0.3075,874.086697939507
0.308,874.087000516943
0.3085,874.087300919721
0.309,874.087599160596
0.3095,874.087895252244
0.31,874.088189207275
0.3105,874.088481038216
0.311,874.088770757527
0.3115,874.089058377597
0.312,874.089343910734
0.3125,874.089627369185
0.313,874.089908765118
0.3135,874.090188110633
0.314,874.090465417757
0.3145,874.09074069845
0.315,874.091013964597
0.3155,874.091285228024
0.316,874.091554500479
0.3165,874.091821793637
0.317,874.09208711912
0.3175,874.09235048847
0.318,874.092611913165
0.3185,874.092871404616
0.319,874.093128974166
0.3195,874.093384633097
0.32,874.093638392619
0.3205,874.093890263879
0.321,874.094140257958
0.3215,874.094388385874
0.322,874.09463465858
0.3225,874.094879086962
0.323,874.095121681848
0.3235,874.095362453999
0.324,874.095601414114
0.3245,874.095838572826
0.325,874.096073940713
0.3255,874.096307528286
0.326,874.096539345996
0.3265,874.096769404233
0.327,874.096997713326
0.3275,874.097224283543
0.328,874.097449125094
0.3285,874.097672248125
0.329,874.097893662728
0.3295,874.098113378937
0.33,874.098331406716
0.3305,874.098547755985
0.331,874.098762436598
0.3315,874.098975458352
0.332,874.099186830989
0.3325,874.099396564193
0.333,874.099604667591
0.3335,874.099811150752
0.334,874.100016023193
0.3345,874.100219294375
0.335,874.100420973699
0.3355,874.100621070512
0.336,874.100819594114
0.3365,874.101016553741
0.337,874.10121195858
0.3375,874.101405817762
0.338,874.101598140368
0.3385,874.10178893542
0.339,874.101978211895
0.3395,874.102165978708
0.34,874.102352244732
0.3405,874.102537018782
0.341,874.102720309622
0.3415,874.102902125963
0.342,874.103082476471
0.3425,874.103261369757
0.343,874.103438814382
0.3435,874.103614818852
0.344,874.103789391639
0.3445,874.103962541146
0.345,874.10413427574
0.3455,874.104304603731
0.346,874.104473533387
0.3465,874.104641072926
0.347,874.10480723051
0.3475,874.104972014267
0.348,874.105135432268
0.3485,874.105297492536
0.349,874.105458203053
0.3495,874.105617571752
0.35,874.105775606516
0.3505,874.105932315185
0.351,874.106087705557
0.3515,874.106241785373
0.352,874.106394562343
0.3525,874.106546044118
0.353,874.106696238317
0.3535,874.106845152505
0.354,874.106992794208
0.3545,874.107139170902
0.355,874.107284290028
0.3555,874.107428158975
0.356,874.107570785094
0.3565,874.107712175692
0.357,874.107852338034
0.3575,874.107991279334
0.358,874.108129006778
0.3585,874.108265527499
0.359,874.108400848594
0.3595,874.108534977114
0.36,874.108667920074
0.3605,874.108799684442
0.361,874.10893027715
0.3615,874.109059705087
0.362,874.109187975105
0.3625,874.109315094008
0.363,874.109441068569
0.3635,874.109565905515
0.364,874.109689611538
0.3645,874.109812193289
0.365,874.109933657383
0.3655,874.110054010387
0.366,874.11017325884
0.3665,874.110291409239
0.367,874.110408468039
0.3675,874.110524441664
0.368,874.110639336496
0.3685,874.110753158881
0.369,874.110865915129
0.3695,874.110977611508
0.37,874.111088254255
0.3705,874.111197849571
0.371,874.111306403613
0.3715,874.111413922512
0.372,874.111520412351
0.3725,874.111625879192
0.373,874.111730329051
0.3735,874.111833767911
0.374,874.111936201722
0.3745,874.112037636397
0.375,874.112138077815
0.3755,874.11223753182
0.376,874.112336004226
0.3765,874.112433500806
0.377,874.112530027304
0.3775,874.112625589427
0.378,874.112720192853
0.3785,874.112813843224
0.379,874.112906546147
0.3795,874.112998307203
0.38,874.113089131932
0.3805,874.113179025846
0.381,874.113267994424
0.3815,874.113356043111
0.382,874.113443177326
0.3825,874.113529402451
0.383,874.113614723835
0.3835,874.113699146803
0.384,874.113782676639
0.3845,874.113865318604
0.385,874.113947077925
0.3855,874.114027959798
0.386,874.114107969393
0.3865,874.11418711184
0.387,874.11426539225
0.3875,874.114342815696
0.388,874.114419387227
0.3885,874.114495111857
0.389,874.114569994574
0.3895,874.114644040339
0.39,874.114717254076
0.3905,874.11478964069
0.391,874.11486120505
0.3915,874.114931952001
0.392,874.115001886354
0.3925,874.115071012897
0.393,874.115139336391
0.3935,874.115206861564
0.394,874.115273593118
0.3945,874.115339535729
0.395,874.115404694046
0.3955,874.115469072688
0.396,874.11553267625
0.3965,874.115595509296
0.397,874.115657576369
0.3975,874.115718881981
0.398,874.115779430617
0.3985,874.11583922674
0.399,874.115898274781
0.3995,874.115956579155
0.4,874.116014144238
0.4005,874.116070974389
0.401,874.116127073941
0.4015,874.116182447196
0.402,874.116237098438
0.4025,874.116291031922
0.403,874.116344251877
0.4035,874.116396762513
0.404,874.116448568008
0.4045,874.116499672519
0.405,874.116550080178
0.4055,874.116599795098
0.406,874.116648821355
0.4065,874.116697163014
0.407,874.116744824111
0.4075,874.11679180866
0.408,874.116838120649
0.4085,874.116883764042
0.409,874.116928742785
0.4095,874.116973060793
0.41,874.117016721969
