"Physical Time: Physical Time (s)","Surface Average Rear Temp1 Monitor: Surface Average of Temperature (K)"
0.0005,573.000000000007
0.001,573.000000000088
0.0015,573.000000000631
0.002,573.000000003115
0.0025,573.00000001199
0.003,573.000000038415
0.0035,573.000000106745
0.004,573.000000264639
0.0045,573.000000597441
0.005,573.000001247202
0.0055,573.000002436268
0.006,573.000004494939
0.0065,573.000007892278
0.007,573.000013268841
0.0075,573.000021469937
0.008,573.000033577371
0.0085,573.000050939152
0.009,573.000075194634
0.00950000000000001,573.000108294524
0.01,573.000152514681
0.0105,573.000210463077
0.011,573.000285079632
0.0115,573.000379628915
0.012,573.000497685972
0.0125,573.000643118246
0.013,573.000820050979
0.0135,573.00103284634
0.014,573.001286063541
0.0145,573.001584421285
0.015,573.001932757752
0.0155,573.002335989392
0.016,573.002799069424
0.0165,573.003326946836
0.017,573.003924526603
0.0175,573.004596631696
0.018,573.005347967401
0.0185,573.006183088327
0.019,573.007106368409
0.0195,573.008121974106
0.02,573.009233840928
0.0205,573.010445653318
0.021,573.011760827901
0.0215,573.013182487161
0.022,573.014713485144
0.0225,573.016356368012
0.023,573.018113377163
0.0235,573.01998644863
0.024,573.02197721378
0.0245,573.024087002043
0.025,573.026316845581
0.0255,573.028667485681
0.026,573.031139380659
0.0265,573.03373271505
0.027,573.036447409881
0.0275,573.03928313384
0.028,573.042239315154
0.0285,573.045315154022
0.029,573.048509635427
0.0295,573.05182154222
0.03,573.055249468332
0.0305,573.058791832003
0.031,573.062446888944
0.0315,573.066212745334
0.032,573.070087370588
0.0325,573.074068609821
0.033,573.078154195974
0.0335,573.082341761541
0.034,573.086628849871
0.0345,573.091012926012
0.035,573.095491387093
0.0355,573.100061572199
0.036,573.104720771762
0.0365,573.109466236446
0.037,573.114295185525
0.0375,573.119204814771
0.038,573.124192303845
0.0385,573.1292548232
0.039,573.134389540527
0.0395,573.13959362673
0.04,573.144864261462
0.0405,573.150198638233
0.041,573.155593969109
0.0415,573.161047489014
0.042,573.166556459656
0.0425,573.172118173098
0.043,573.177729954985
0.0435,573.183389167444
0.044,573.189093211697
0.0445,573.194839530357
0.045,573.200625609484
0.0455,573.206448980365
0.046,573.212307221064
0.0465,573.218197957748
0.047,573.22411886581
0.0475,573.230067670787
0.048,573.236042149112
0.0485,573.242040128688
0.049,573.248059489316
0.0495,573.254098162972
0.05,573.260154133964
0.0505,573.26622543896
0.051,573.27231016691
0.0515,573.278406458862
0.052,573.284512507696
0.0525,573.290626557764
0.053,573.296746904462
0.0535,573.30287189373
0.054,573.308999921495
0.0545,573.315129433053
0.055,573.32125892241
0.0555,573.327386931573
0.056,573.333512049809
0.0565,573.33963291287
0.057,573.345748202187
0.0575,573.351856644042
0.058,573.35795700872
0.0585,573.364048109644
0.059,573.370128802498
0.0595,573.376197984333
0.06,573.382254592681
0.0605,573.388297604641
0.061,573.394326035987
0.0615,573.400338940255
0.062,573.406335407846
0.0625,573.412314565122
0.063,573.418275573511
0.0635,573.424217628622
0.064,573.430139959361
0.0645,573.436041827056
0.065,573.441922524597
0.0655,573.447781375584
0.066,573.45361773348
0.0665,573.459430980789
0.067,573.465220528237
0.0675,573.470985813965
0.068,573.476726302744
0.0685,573.482441485201
0.069,573.48813087705
0.0695,573.493794018356
0.07,573.499430472796
0.0705,573.505039826946
0.071,573.510621689578
0.0715000000000001,573.516175690978
0.0720000000000001,573.52170148227
0.0725000000000001,573.527198734762
0.0730000000000001,573.53266713931
0.0735000000000001,573.538106405688
0.0740000000000001,573.54351626198
0.0745000000000001,573.548895056012
0.0750000000000001,573.554244452625
0.0755000000000001,573.559563930296
0.0760000000000001,573.564853193695
0.0765000000000001,573.570112015244
0.0770000000000001,573.575340200484
0.0775000000000001,573.580537577484
0.0780000000000001,573.585703992459
0.0785000000000001,573.590839307504
0.0790000000000001,573.595943399221
0.0795000000000001,573.601016157757
0.0800000000000001,573.606057486064
0.0805000000000001,573.611067299279
0.0810000000000001,573.616045524179
0.0815000000000001,573.620992098685
0.0820000000000001,573.625906971401
0.0825000000000001,573.630790101188
0.0830000000000001,573.635641456754
0.0835000000000001,573.640461016263
0.0840000000000001,573.645248766965
0.0845000000000001,573.650004704842
0.0850000000000001,573.65472883426
0.0855000000000001,573.659421167643
0.0860000000000001,573.664081725153
0.0865000000000001,573.668710534383
0.0870000000000001,573.67330763006
0.0875000000000001,573.677873053756
0.0880000000000001,573.682406853617
0.0885000000000001,573.68690908409
0.0890000000000001,573.691379805663
0.0895000000000001,573.695819084617
0.0900000000000001,573.700226992785
0.0905000000000001,573.704603607313
0.0910000000000001,573.708949010437
0.0915000000000001,573.71326328926
0.0920000000000001,573.717546535543
0.0925000000000001,573.7217988455
0.0930000000000001,573.726020319596
0.0935000000000001,573.730211062358
0.0940000000000001,573.734371182187
0.0945000000000001,573.73850079118
0.0950000000000001,573.742600004959
0.0955000000000001,573.746668942497
0.0960000000000001,573.750707725962
0.0965000000000001,573.754716480557
0.0970000000000001,573.758695334368
0.0975000000000001,573.76264441822
0.0980000000000001,573.766563865534
0.0985000000000001,573.770453812193
0.0990000000000001,573.774314396406
0.0995000000000001,573.778145758582
0.1,573.781948041211
0.1005,573.785721388738
0.101,573.789465947455
0.1015,573.793181865387
0.102,573.796869292185
0.1025,573.800528379025
0.103,573.804159278507
0.1035,573.807762144558
0.104,573.811337132342
0.1045,573.814884398171
0.105,573.818404099415
0.1055,573.821896394424
0.106,573.825361442443
0.1065,573.828799403542
0.107,573.832210438533
0.1075,573.835594708905
0.108,573.838952376755
0.1085,573.842283604715
0.109,573.845588555898
0.1095,573.848867393828
0.11,573.852120282385
0.1105,573.855347385749
0.111,573.858548868341
0.1115,573.861724894775
0.112,573.864875629803
0.1125,573.868001238272
0.113,573.87110188507
0.1135,573.874177735087
0.114,573.87722895317
0.1145,573.880255704078
0.115,573.88325815245
0.1155,573.886236462758
0.116,573.889190799277
0.1165,573.892121326047
0.117,573.895028206838
0.1175,573.897911605121
0.118,573.900771684036
0.1185,573.90360860636
0.119,573.90642253448
0.1195,573.90921363037
0.12,573.911982055558
0.1205,573.914727971104
0.121,573.91745153758
0.1215,573.920152915042
0.122,573.92283226301
0.1225,573.925489740451
0.123,573.928125505753
0.1235,573.930739716712
0.124,573.933332530511
0.1245,573.935904103703
0.125,573.938454592198
0.1255,573.940984151242
0.126,573.94349293541
0.1265,573.945981098586
0.127,573.948448793951
0.1275,573.950896173975
0.128,573.9533233904
0.1285,573.95573059423
0.129,573.958117935726
0.1295,573.960485564386
0.13,573.962833628948
0.1305,573.965162277372
0.131,573.967471656834
0.1315,573.969761913722
0.132,573.972033193625
0.1325,573.97428564133
0.133,573.976519400812
0.1335,573.978734615231
0.134,573.980931426925
0.1345,573.983109977408
0.135,573.985270407365
0.1355,573.987412856644
0.136,573.989537464257
0.1365,573.991644368375
0.137,573.993733706327
0.1375,573.995805614593
0.138,573.997860228808
0.1385,573.999897683753
0.139,574.001918113359
0.1395,574.003921650704
0.14,574.005908428013
0.1405,574.007878576653
0.141,574.009832227136
0.1415,574.011769509121
0.142,574.013690551409
0.1425,574.015595481944
0.143,574.017484427819
0.1435,574.019357515267
0.144,574.021214869672
0.1445,574.023056615562
0.145,574.024882876616
0.1455,574.026693775659
0.146,574.028489434671
0.1465,574.030269974784
0.147,574.032035516283
0.1475,574.033786178613
0.148,574.035522080375
0.1485,574.037243339333
0.149,574.038950072415
0.1495,574.040642395713
0.15,574.042320424491
0.1505,574.043984273182
0.151,574.045634055395
0.1515,574.047269883915
0.152,574.048891870711
0.1525,574.050500126931
0.153,574.052094762914
0.1535,574.053675888188
0.154,574.055243611473
0.1545,574.056798040689
0.155,574.058339282955
0.1555,574.059867444596
0.156,574.061382631144
0.1565,574.062884947343
0.157,574.064374497153
0.1575,574.065851383755
0.158,574.06731570955
0.1585,574.06876757617
0.159,574.070207084478
0.1595,574.071634334571
0.16,574.073049425787
0.1605,574.074452456707
0.161,574.075843525161
0.1615,574.077222728232
0.162,574.078590162257
0.1625,574.079945922835
0.163,574.08129010483
0.1635,574.082622802376
0.164,574.083944108879
0.1645,574.085254117025
0.165,574.086552918781
0.1655,574.0878406054
0.166,574.089117267429
0.1665,574.090382994708
0.167,574.091637876378
0.1675,574.092882000883
0.168,574.094115455978
0.1685,574.095338328729
0.169,574.096550705522
0.1695,574.097752672063
0.17,574.098944313386
0.1705,574.100125713856
0.171,574.101296957171
0.1715,574.102458126373
0.172,574.103609303844
0.1725,574.104750571319
0.173,574.105882009882
0.1735,574.107003699978
0.174,574.108115721413
0.1745,574.109218153358
0.175,574.110311074357
0.1755,574.111394562328
0.176,574.112468694568
0.1765,574.113533547759
0.177,574.114589197972
0.1775,574.115635720668
0.178,574.116673190709
0.1785,574.117701682354
0.179,574.118721269271
0.1795,574.119732024536
0.18,574.120734020639
0.1805,574.121727329491
0.181,574.122712022421
0.1815,574.123688170191
0.182,574.124655842988
0.1825,574.125615110439
0.183,574.126566041607
0.1835,574.127508705001
0.184,574.128443168578
0.1845,574.129369499743
0.185,574.130287765361
0.1855,574.131198031756
0.186,574.132100364715
0.1865,574.132994829494
0.187,574.133881490821
0.1875,574.134760412899
0.188,574.135631659414
0.1885,574.136495293533
0.189,574.137351377912
0.1895,574.138199974698
0.19,574.139041145536
0.1905,574.139874951569
0.191,574.140701453443
0.1915,574.141520711311
0.192,574.14233278484
0.1925,574.143137733209
0.193,574.143935615115
0.1935,574.14472648878
0.194,574.145510411951
0.1945,574.146287441902
0.195,574.147057635445
0.1955,574.147821048925
0.196,574.148577738231
0.1965,574.149327758792
0.197,574.150069819343
0.1975,574.150805772186
0.198,574.151535411396
0.1985,574.152258708216
0.199,574.152975679675
0.1995,574.153686359045
0.2,574.154390786736
0.2005,574.1550890067
0.201,574.155781064765
0.2015,574.156467007784
0.202,574.157146883162
0.2025,574.157820738571
0.203,574.158488621776
0.2035,574.159150580507
0.204,574.159806662385
0.2045,574.160456914852
0.205,574.161101385134
0.2055,574.161740120207
0.206,574.162373166771
0.2065,574.163000571233
0.207,574.163622379694
0.2075,574.164238637938
0.208,574.164849391423
0.2085,574.165454685279
0.209,574.166054564299
0.2095,574.166649072941
0.21,574.167238255324
0.2105,574.167822155227
0.211,574.168400816089
0.2115,574.168974281011
0.212,574.169542592751
0.2125,574.170105793732
0.213,574.170663926039
0.2135,574.171217031422
0.214,574.171765151295
0.2145,574.172308326742
0.215,574.172846598516
0.2155,574.173380007039
0.216,574.173908592409
0.2165,574.174432394399
0.217,574.17495145246
0.2175,574.175465805722
0.218,574.175975492998
0.2185,574.176480552783
0.219,574.176981023262
0.2195,574.177476942307
0.22,574.17796834748
0.2205,574.178455276038
0.221,574.178937764934
0.2215,574.179415850818
0.222,574.179889570039
0.2225,574.180358958652
0.223,574.180824052414
0.2235,574.181284886789
0.224,574.181741496952
0.2245,574.182193917789
0.225,574.182642183899
0.2255,574.1830863296
0.226,574.183526388924
0.2265,574.183962395627
0.227,574.184394383186
0.2275,574.184822384805
0.228,574.185246433412
0.2285,574.185666561668
0.229,574.186082801964
0.2295,574.186495186423
0.23,574.186903746906
0.2305,574.187308515011
0.231,574.187709522076
0.2315,574.188106799183
0.232,574.188500377155
0.2325,574.188890286563
0.233,574.189276557727
0.2335,574.189659220715
0.234,574.190038305351
0.2345,574.190413841209
0.235,574.190785857624
0.2355,574.191154383685
0.236,574.191519448245
0.2365,574.191881079916
0.237,574.192239307077
0.2375,574.192594157872
0.238,574.192945660211
0.2385,574.193293841778
0.239,574.193638730026
0.2395,574.193980352181
0.24,574.194318735248
0.2405,574.194653906005
0.241,574.194985891012
0.2415,574.195314716609
0.242,574.19564040892
0.2425,574.19596299385
0.243,574.196282497096
0.2435,574.196598944136
0.244,574.196912360244
0.2445,574.197222770483
0.245,574.197530199708
0.2455,574.19783467257
0.246,574.198136213518
0.2465,574.198434846796
0.247,574.198730596452
0.2475,574.199023486332
0.248,574.199313540086
0.2485,574.199600781169
0.249,574.199885232845
0.2495,574.200166918182
0.25,574.200445860058
0.2505,574.200722081166
0.251,574.200995604006
0.2515,574.201266450898
0.252,574.201534643973
0.2525,574.201800205181
0.253,574.202063156292
0.2535,574.202323518895
0.254,574.202581314401
0.2545,574.202836564043
0.255,574.20308928888
0.2555,574.203339509798
0.256,574.203587247508
0.2565,574.203832522552
0.257,574.204075355301
0.2575,574.204315765958
0.258,574.204553774561
0.2585,574.20478940098
0.259,574.205022664922
0.2595,574.20525358593
0.26,574.205482183389
0.2605,574.205708476519
0.261,574.205932484385
0.2615,574.206154225893
0.262,574.206373719794
0.2625,574.206590984682
0.263,574.206806038998
0.2635,574.207018901032
0.264,574.207229588922
0.2645,574.207438120657
0.265,574.207644514075
0.2655,574.20784878687
0.266,574.208050956587
0.2665,574.208251040627
0.267,574.208449056247
0.2675,574.208645020563
0.268,574.208838950547
0.2685,574.209030863032
0.269,574.209220774713
0.2695,574.209408702146
0.27,574.209594661749
0.2705,574.209778669807
0.271,574.209960742468
0.2715,574.210140895747
0.272,574.210319145529
0.2725,574.210495507564
0.273,574.210669997475
0.2735,574.210842630754
0.274,574.211013422766
0.2745,574.211182388749
0.275,574.211349543814
0.2755,574.211514902948
0.276,574.211678481015
0.2765,574.211840292754
0.277,574.212000352783
0.2775,574.212158675601
0.278,574.212315275585
0.2785,574.212470166994
0.279,574.212623363968
0.2795,574.212774880533
0.28,574.212924730596
0.2805,574.213072927951
0.281,574.213219486277
0.2815,574.21336441914
0.282,574.213507739995
0.2825,574.213649462184
0.283,574.21378959894
0.2835,574.213928163386
0.284,574.214065168538
0.2845,574.214200627301
0.285,574.214334552478
0.2855,574.214466956763
0.286,574.214597852744
0.2865,574.21472725291
0.287,574.214855169641
0.2875,574.214981615219
0.288,574.215106601821
0.2885,574.215230141526
0.289,574.215352246312
0.2895,574.215472928059
0.29,574.215592198546
0.2905,574.215710069459
0.291,574.215826552384
0.2915,574.215941658813
0.292,574.21605540014
0.2925,574.21616778767
0.293,574.21627883261
0.2935,574.216388546077
0.294,574.216496939094
0.2945,574.216604022595
0.295,574.216709807422
0.2955,574.216814304328
0.296,574.216917523978
0.2965,574.217019476947
0.297,574.217120173724
0.2975,574.21721962471
0.298,574.217317840223
0.2985,574.217414830491
0.299,574.217510605662
0.2995,574.217605175797
0.3,574.217698550876
0.3005,574.217790740794
0.301,574.217881755367
0.3015,574.217971604328
0.302,574.21806029733
0.3025,574.218147843946
0.303,574.218234253672
0.3035,574.218319535921
0.304,574.218403700032
0.3045,574.218486755266
0.305,574.218568710806
0.3055,574.218649575762
0.306,574.218729359165
0.3065,574.218808069975
0.307,574.218885717074
0.3075,574.218962309274
0.308,574.219037855313
0.3085,574.219112363856
0.309,574.219185843497
0.3095,574.219258302759
0.31,574.219329750096
0.3105,574.219400193888
0.311,574.21946964245
0.3115,574.219538104026
0.312,574.219605586793
0.3125,574.219672098859
0.313,574.219737648266
0.3135,574.21980224299
0.314,574.21986589094
0.3145,574.21992859996
0.315,574.219990377828
0.3155,574.220051232261
0.316,574.220111170909
0.3165,574.22017020136
0.317,574.220228331139
0.3175,574.220285567709
0.318,574.22034191847
0.3185,574.220397390763
0.319,574.220451991868
0.3195,574.220505729003
0.32,574.220558609328
0.3205,574.220610639944
0.321,574.220661827891
0.3215,574.220712180153
0.322,574.220761703656
0.3225,574.220810405268
0.323,574.220858291801
0.3235,574.22090537001
0.324,574.220951646595
0.3245,574.220997128198
0.325,574.221041821411
0.3255,574.221085732766
0.326,574.221128868746
0.3265,574.221171235776
0.327,574.221212840232
0.3275,574.221253688433
0.328,574.221293786649
0.3285,574.221333141098
0.329,574.221371757944
0.3295,574.221409643303
0.33,574.221446803239
0.3305,574.221483243766
0.331,574.221518970848
0.3315,574.221553990401
0.332,574.22158830829
0.3325,574.221621930333
0.333,574.2216548623
0.3335,574.221687109913
0.334,574.221718678846
0.3345,574.221749574726
0.335,574.221779803135
0.3355,574.221809369609
0.336,574.221838279635
0.3365,574.221866538658
0.337,574.221894152077
0.3375,574.221921125246
0.338,574.221947463475
0.3385,574.221973172029
0.339,574.221998256132
0.3395,574.222022720963
0.34,574.222046571658
0.3405,574.222069813312
0.341,574.222092450975
0.3415,574.222114489659
0.342,574.222135934332
0.3425,574.222156789922
0.343,574.222177061315
0.3435,574.222196753358
0.344,574.222215870858
0.3445,574.222234418582
0.345,574.222252401256
0.3455,574.222269823569
0.346,574.22228669017
0.3465,574.222303005671
0.347,574.222318774644
0.3475,574.222334001624
0.348,574.222348691109
0.3485,574.222362847559
0.349,574.222376475399
0.3495,574.222389579014
0.35,574.222402162756
0.3505,574.22241423094
0.351,574.222425787843
0.3515,574.222436837711
0.352,574.222447384752
0.3525,574.222457433139
0.353,574.222466987011
0.3535,574.222476050475
0.354,574.222484627601
0.3545,574.222492722426
0.355,574.222500226287
0.3555,574.222507293138
0.356,574.222513909108
0.3565,574.222520071503
0.357,574.222525780961
0.3575,574.222531039443
0.358,574.222535849537
0.3585,574.222540214167
0.359,574.222544136445
0.3595,574.222547619598
0.36,574.222550666922
0.3605,574.222553281754
0.361,574.222555467455
0.3615,574.222557227398
0.362,574.222558564956
0.3625,574.222559483501
0.363,574.222559986393
0.3635,574.222560076983
0.364,574.222559758604
0.3645,574.222559034575
0.365,574.222557908192
0.3655,574.222556382735
0.366,574.222554461461
0.3665,574.222552147604
0.367,574.22254944438
0.3675,574.222546354978
0.368,574.222542882566
0.3685,574.222539030288
0.369,574.222534801267
0.3695,574.2225301986
0.37,574.22252522536
0.3705,574.2225198846
0.371,574.222514179347
0.3715,574.222508112604
0.372,574.222501687352
0.3725,574.222494906549
0.373,574.222487773129
0.3735,574.222480290003
0.374,574.222472460059
0.3745,574.222464286162
0.375,574.222455771154
0.3755,574.222446917856
0.376,574.222437729064
0.3765,574.222428207553
0.377,574.222418356077
0.3775,574.222408177365
0.378,574.222397674126
0.3785,574.222386849048
0.379,574.222375704794
0.3795,574.222364244008
0.38,574.222352469313
0.3805,574.22234038331
0.381,574.222327988577
0.3815,574.222315287675
0.382,574.222302283141
0.3825,574.222288977493
0.383,574.222275373227
0.3835,574.22226147282
0.384,574.222247278729
0.3845,574.22223279339
0.385,574.222218019219
0.3855,574.222202958613
0.386,574.222187613949
0.3865,574.222171987584
0.387,574.222156081859
0.3875,574.22213989909
0.388,574.222123441578
0.3885,574.222106711605
0.389,574.222089711434
0.3895,574.222072443308
0.39,574.222054909452
0.3905,574.222037112075
0.391,574.222019053366
0.3915,574.222000735495
0.392,574.221982160616
0.3925,574.221963330865
0.393,574.221944248359
0.3935,574.2219249152
0.394,574.22190533347
0.3945,574.221885505236
0.395,574.221865432547
0.3955,574.221845117436
0.396,574.221824561917
0.3965,574.22180376799
0.397,574.221782737638
0.3975,574.221761472826
0.398,574.221739975504
0.3985,574.221718247607
0.399,574.221696291051
0.3995,574.221674107741
0.4,574.22165169956
0.4005,574.221629068382
0.401,574.221606216061
0.4015,574.221583144437
0.402,574.221559855335
0.4025,574.221536350565
0.403,574.221512631923
0.4035,574.221488701188
0.404,574.221464560126
0.4045,574.221440210487
0.405,574.221415654008
0.4055,574.221390892413
0.406,574.221365927407
0.4065,574.221340760686
0.407,574.221315393928
0.4075,574.221289828801
0.408,574.221264066956
0.4085,574.221238110033
0.409,574.221211959655
0.4095,574.221185617435
0.41,574.221159084972
0.4105,574.22113236385
