"Physical Time: Physical Time (s)","Surface Average Rear Temp1 Monitor: Surface Average of Temperature (K)"
0.0005,873.000000000012
0.001,873.000000000056
0.0015,873.000000000159
0.002,873.000000000221
0.0025,872.999999999805
0.003,872.999999998069
0.0035,872.999999993966
0.004,872.999999986929
0.0045,872.999999978171
0.005,872.999999972749
0.0055,872.999999982439
0.006,873.000000029454
0.0065,873.000000150953
0.007,873.000000404257
0.0075,873.000000872668
0.008,873.000001671703
0.0085,873.000002955612
0.009,873.000004923952
0.00950000000000001,873.000007828077
0.01,873.000011977344
0.0105,873.000017744865
0.011,873.000025572691
0.0115,873.00003597628
0.012,873.000049548152
0.0125,873.000066960667
0.013,873.000088967882
0.0135,873.000116406428
0.014,873.00015019544
0.0145,873.000191335549
0.015,873.000240906949
0.0155,873.000300066605
0.016,873.000370044672
0.0165,873.000452140177
0.017,873.000547716049
0.0175,873.000658193599
0.018,873.000785046507
0.0185,873.000929794428
0.019,873.001093996294
0.0195,873.001279243399
0.02,873.001487152341
0.0205,873.001719357922
0.021,873.001977506039
0.0215,873.002263246671
0.022,873.002578226988
0.0225,873.00292408467
0.023,873.003302441446
0.0235,873.003714896926
0.024,873.004163022732
0.0245,873.004648356984
0.025,873.005172399131
0.0255,873.005736605178
0.026,873.006342383298
0.0265,873.006991089831
0.027,873.007684025703
0.0275,873.008422433232
0.028,873.00920749333
0.0285,873.010040323096
0.029,873.010921973786
0.0295,873.011853429152
0.03,873.012835604121
0.0305,873.013869343829
0.031,873.014955422957
0.0315,873.016094545381
0.032,873.017287344094
0.0325,873.018534381414
0.033,873.01983614941
0.0335,873.021193070581
0.034,873.022605498728
0.0345,873.024073720021
0.035,873.025597954247
0.0355,873.027178356195
0.036,873.028815017194
0.0365,873.030507966766
0.037,873.032257174392
0.0375,873.034062551351
0.038,873.035923952667
0.0385,873.037841179089
0.039,873.039813979137
0.0395,873.041842051195
0.04,873.043925045617
0.0405,873.046062566862
0.041,873.048254175643
0.0415,873.050499391062
0.042,873.05279769275
0.0425,873.055148523
0.043,873.057551288198
0.0435,873.060005362477
0.044,873.062510088619
0.0445,873.065064780301
0.045,873.067668724082
0.0455,873.070321181318
0.046,873.073021390055
0.0465,873.075768566854
0.047,873.078561908591
0.0475,873.081400594168
0.048,873.084283786208
0.0485,873.087210632667
0.049,873.090180268405
0.0495,873.093191816697
0.05,873.09624439068
0.0505,873.099337094758
0.051,873.102469025935
0.0515,873.105639275102
0.052,873.10884692826
0.0525,873.112091067701
0.053,873.115370773121
0.0535,873.118685122683
0.054,873.122033194032
0.0545,873.125414065257
0.055,873.1288268158
0.0555,873.13227052732
0.056,873.135744284502
0.0565,873.139247175835
0.057,873.142778294324
0.0575,873.14633673818
0.058,873.149921611446
0.0585,873.153532024603
0.059,873.157167095124
0.0595,873.160825947993
0.06,873.164507716188
0.0605,873.168211541126
0.061,873.171936573083
0.0615,873.175681971566
0.062,873.179446905677
0.0625,873.183230554419
0.063,873.187032106997
0.0635,873.190850763078
0.064,873.194685733037
0.0645,873.198536238162
0.065,873.202401510852
0.0655,873.206280794782
0.066,873.21017334505
0.0665,873.214078428301
0.067,873.217995322842
0.0675,873.221923318722
0.068,873.225861717808
0.0685,873.229809833844
0.069,873.233766992481
0.0695,873.237732531316
0.07,873.241705799893
0.0705,873.245686159706
0.071,873.249672984184
0.0715000000000001,873.253665658672
0.0720000000000001,873.257663580388
0.0725000000000001,873.261666158385
0.0730000000000001,873.265672813488
0.0735000000000001,873.269682978242
0.0740000000000001,873.273696096827
0.0745000000000001,873.277711624995
0.0750000000000001,873.281729029967
0.0755000000000001,873.285747790356
0.0760000000000001,873.289767396057
0.0765000000000001,873.293787348152
0.0770000000000001,873.297807158794
0.0775000000000001,873.301826351099
0.0780000000000001,873.305844459019
0.0785000000000001,873.309861027241
0.0790000000000001,873.313875611035
0.0795000000000001,873.317887776144
0.0800000000000001,873.32189709865
0.0805000000000001,873.325903164837
0.0810000000000001,873.329905571054
0.0815000000000001,873.333903923584
0.0820000000000001,873.337897838503
0.0825000000000001,873.341886941531
0.0830000000000001,873.345870867903
0.0835000000000001,873.349849262219
0.0840000000000001,873.353821778299
0.0845000000000001,873.357788079044
0.0850000000000001,873.361747836289
0.0855000000000001,873.365700730662
0.0860000000000001,873.369646451431
0.0865000000000001,873.373584696367
0.0870000000000001,873.377515171601
0.0875000000000001,873.381437591474
0.0880000000000001,873.385351678396
0.0885000000000001,873.389257162708
0.0890000000000001,873.393153782534
0.0895000000000001,873.397041283643
0.0900000000000001,873.400919419308
0.0905000000000001,873.40478795017
0.0910000000000001,873.408646644094
0.0915000000000001,873.412495276037
0.0920000000000001,873.416333627911
0.0925000000000001,873.420161488453
0.0930000000000001,873.423978653079
0.0935000000000001,873.427784923771
0.0940000000000001,873.431580108929
0.0945000000000001,873.435364023259
0.0950000000000001,873.439136487633
0.0955000000000001,873.442897328969
0.0960000000000001,873.446646380106
0.0965000000000001,873.450383479684
0.0970000000000001,873.454108472017
0.0975000000000001,873.457821206986
0.0980000000000001,873.461521539906
0.0985000000000001,873.465209331424
0.0990000000000001,873.468884447395
0.0995000000000001,873.472546758777
0.1,873.476196141519
0.1005,873.479832476445
0.101,873.483455649157
0.1015,873.487065549922
0.102,873.490662073574
0.1025,873.494245119405
0.103,873.497814591073
0.1035,873.501370396496
0.104,873.504912447759
0.1045,873.508440661016
0.105,873.5119549564
0.1055,873.515455257929
0.106,873.51894149341
0.1065,873.522413594366
0.107,873.525871495927
0.1075,873.529315136762
0.108,873.532744458991
0.1085,873.536159408096
0.109,873.539559932844
0.1095,873.542945985213
0.11,873.546317520305
0.1105,873.549674496277
0.111,873.553016874261
0.1115,873.556344618291
0.112,873.559657695241
0.1125,873.562956074734
0.113,873.566239729095
0.1135,873.569508633268
0.114,873.572762764756
0.1145,873.576002103555
0.115,873.57922663209
0.1155,873.582436335152
0.116,873.585631199837
0.1165,873.588811215486
0.117,873.591976373626
0.1175,873.595126667916
0.118,873.598262094086
0.1185,873.601382649882
0.119,873.604488335016
0.1195,873.607579151109
0.12,873.610655101642
0.1205,873.613716191908
0.121,873.616762428955
0.1215,873.61979382154
0.122,873.62281038009
0.1225,873.625812116644
0.123,873.628799044815
0.1235,873.631771179738
0.124,873.634728538042
0.1245,873.637671137786
0.125,873.640598998437
0.1255,873.643512140819
0.126,873.646410587075
0.1265,873.649294360628
0.127,873.652163486146
0.1275,873.655017989502
0.128,873.657857897737
0.1285,873.660683239026
0.129,873.663494042649
0.1295,873.666290338944
0.13,873.669072159287
0.1305,873.671839536049
0.131,873.674592502575
0.1315,873.677331093143
0.132,873.680055342943
0.1325,873.682765288039
0.133,873.685460965347
0.1335,873.688142412603
0.134,873.690809668335
0.1345,873.693462771841
0.135,873.696101763161
0.1355,873.698726683044
0.136,873.701337572934
0.1365,873.70393447494
0.137,873.706517431812
0.1375,873.709086486917
0.138,873.711641684223
0.1385,873.714183068268
0.139,873.716710684144
0.1395,873.719224577471
0.14,873.721724794382
0.1405,873.724211381502
0.141,873.726684385924
0.1415,873.729143855194
0.142,873.73158983729
0.1425,873.734022380607
0.143,873.736441533934
0.1435,873.738847346443
0.144,873.741239867665
0.1445,873.743619147481
0.145,873.745985236101
0.1455,873.748338184046
0.146,873.750678042142
0.1465,873.753004861497
0.147,873.755318693489
0.1475,873.757619589749
0.148,873.759907602153
0.1485,873.762182782805
0.149,873.764445184022
0.1495,873.766694858328
0.15,873.768931858432
0.1505,873.771156237224
0.151,873.773368047759
0.1515,873.775567343248
0.152,873.777754177039
0.1525,873.779928602625
0.153,873.782090673607
0.1535,873.784240443705
0.154,873.78637796674
0.1545,873.788503296622
0.155,873.790616487346
0.1555,873.792717592975
0.156,873.79480666764
0.1565,873.796883765523
0.157,873.798948940857
0.1575,873.801002247909
0.158,873.803043740976
0.1585,873.805073474375
0.159,873.807091502442
0.1595,873.809097879516
0.16,873.811092659938
0.1605,873.813075898036
0.161,873.815047648131
0.1615,873.817007964513
0.162,873.818956901458
0.1625,873.820894513194
0.163,873.822820853916
0.1635,873.824735977772
0.164,873.826639938859
0.1645,873.828532791212
0.165,873.830414588809
0.1655,873.832285385557
0.166,873.834145235289
0.1665,873.835994191762
0.167,873.837832308646
0.1675,873.839659639527
0.168,873.8414762379
0.1685,873.843282157156
0.169,873.845077450593
0.1695,873.846862171399
0.17,873.848636372654
0.1705,873.850400107329
0.171,873.85215342827
0.1715,873.85389638821
0.172,873.855629039754
0.1725,873.857351435382
0.173,873.859063627443
0.1735,873.860765668152
0.174,873.862457609585
0.1745,873.864139503684
0.175,873.86581140224
0.1755,873.867473356907
0.176,873.869125419184
0.1765,873.870767640425
0.177,873.872400071827
0.1775,873.874022764431
0.178,873.875635769126
0.1785,873.877239136632
0.179,873.878832917514
0.1795,873.880417162171
0.18,873.881991920833
0.1805,873.883557243565
0.181,873.885113180258
0.1815,873.886659780638
0.182,873.888197094251
0.1825,873.88972517047
0.183,873.891244058494
0.1835,873.892753807339
0.184,873.894254465846
0.1845,873.895746082672
0.185,873.897228706295
0.1855,873.898702385006
0.186,873.900167166916
0.1865,873.901623099944
0.187,873.90307023183
0.1875,873.904508610118
0.188,873.905938282171
0.1885,873.907359295156
0.189,873.908771696055
0.1895,873.910175531656
0.19,873.911570848554
0.1905,873.912957693153
0.191,873.914336111664
0.1915,873.915706150103
0.192,873.917067854292
0.1925,873.918421269858
0.193,873.91976644223
0.1935,873.921103416644
0.194,873.922432238141
0.1945,873.92375295156
0.195,873.925065601546
0.1955,873.926370232548
0.196,873.927666888814
0.1965,873.928955614396
0.197,873.930236453145
0.1975,873.931509448719
0.198,873.932774644572
0.1985,873.934032083963
0.199,873.935281809948
0.1995,873.936523865392
0.2,873.937758292953
0.2005,873.938985135095
0.201,873.940204434081
0.2015,873.941416231977
0.202,873.942620570648
0.2025,873.943817491763
0.203,873.94500703679
0.2035,873.946189247003
0.204,873.947364163471
0.2045,873.948531827073
0.205,873.949692278483
0.2055,873.950845558182
0.206,873.951991706452
0.2065,873.953130763381
0.207,873.954262768856
0.2075,873.955387762568
0.208,873.956505784015
0.2085,873.957616872497
0.209,873.958721067121
0.2095,873.959818406794
0.21,873.960908930234
0.2105,873.961992675961
0.211,873.963069682303
0.2115,873.964139987392
0.212,873.965203629172
0.2125,873.96626064539
0.213,873.967311073603
0.2135,873.968354951174
0.214,873.969392315279
0.2145,873.970423202899
0.215,873.971447650829
0.2155,873.972465695672
0.216,873.973477373842
0.2165,873.974482721566
0.217,873.975481774879
0.2175,873.976474569636
0.218,873.977461141497
0.2185,873.978441525941
0.219,873.979415758262
0.2195,873.980383873565
0.22,873.981345906771
0.2205,873.982301892622
0.221,873.98325186567
0.2215,873.984195860291
0.222,873.985133910672
0.2225,873.986066050827
0.223,873.986992314581
0.2235,873.987912735584
0.224,873.988827347307
0.2245,873.989736183036
0.225,873.990639275888
0.2255,873.991536658794
0.226,873.992428364517
0.2265,873.993314425636
0.227,873.994194874557
0.2275,873.995069743516
0.228,873.995939064566
0.2285,873.996802869594
0.229,873.997661190314
0.2295,873.998514058265
0.23,873.999361504813
0.2305,874.000203561159
0.231,874.001040258333
0.2315,874.00187162719
0.232,874.002697698423
0.2325,874.003518502556
0.233,874.004334069945
0.2335,874.005144430779
0.234,874.005949615083
0.2345,874.006749652717
0.235,874.007544573375
0.2355,874.00833440659
0.236,874.009119181731
0.2365,874.009898928005
0.237,874.010673674459
0.2375,874.011443449978
0.238,874.012208283289
0.2385,874.012968202956
0.239,874.013723237391
0.2395,874.014473414842
0.24,874.015218763404
0.2405,874.015959311015
0.241,874.016695085457
0.2415,874.017426114359
0.242,874.018152425193
0.2425,874.018874045279
0.243,874.01959100179
0.2435,874.020303321737
0.244,874.021011031986
0.2445,874.021714159252
0.245,874.022412730104
0.2455,874.023106770951
0.246,874.023796308069
0.2465,874.024481367575
0.247,874.02516197544
0.2475,874.025838157499
0.248,874.02650993943
0.2485,874.027177346771
0.249,874.027840404919
0.2495,874.028499139124
0.25,874.029153574495
0.2505,874.029803735999
0.251,874.030449648461
0.2515,874.03109133657
0.252,874.031728824868
0.2525,874.032362137767
0.253,874.032991299532
0.2535,874.033616334297
0.254,874.034237266055
0.2545,874.034854118669
0.255,874.035466915861
0.2555,874.036075681218
0.256,874.036680438196
0.2565,874.037281210118
0.257,874.03787802017
0.2575,874.038470891415
0.258,874.039059846774
0.2585,874.039644909041
0.259,874.040226100887
0.2595,874.040803444844
0.26,874.041376963323
0.2605,874.041946678602
0.261,874.042512612836
0.2615,874.043074788048
0.262,874.043633226144
0.2625,874.044187948894
0.263,874.044738977952
0.2635,874.045286334845
0.264,874.045830040979
0.2645,874.046370117631
0.265,874.046906585963
0.2655,874.047439467014
0.266,874.047968781704
0.2665,874.048494550827
0.267,874.049016795065
0.2675,874.049535534977
0.268,874.050050791004
0.2685,874.050562583475
0.269,874.051070932593
0.2695,874.051575858452
0.27,874.052077381032
0.2705,874.05257552019
0.271,874.053070295678
0.2715,874.053561727128
0.272,874.054049834061
0.2725,874.054534635887
0.273,874.055016151902
0.2735,874.055494401292
0.274,874.055969403133
0.2745,874.056441176392
0.275,874.056909739924
0.2755,874.057375112476
0.276,874.05783731269
0.2765,874.058296359096
0.277,874.05875227012
0.2775,874.05920506408
0.278,874.05965475919
0.2785,874.060101373559
0.279,874.060544925189
0.2795,874.060985431979
0.28,874.061422911727
0.2805,874.061857382126
0.281,874.062288860766
0.2815,874.062717365136
0.282,874.063142912626
0.2825,874.063565520522
0.283,874.063985206012
0.2835,874.064401986185
0.284,874.064815878029
0.2845,874.065226898437
0.285,874.0656350642
0.2855,874.066040392016
0.286,874.066442898483
0.2865,874.066842600104
0.287,874.067239513289
0.2875,874.067633654348
0.288,874.0680250395
0.2885,874.068413684868
0.289,874.068799606484
0.2895,874.069182820284
0.29,874.069563342114
0.2905,874.069941187727
0.291,874.070316372786
0.2915,874.07068891286
0.292,874.071058823431
0.2925,874.071426119889
0.293,874.071790817535
0.2935,874.072152931584
0.294,874.072512477159
0.2945,874.072869469296
0.295,874.073223922943
0.2955,874.073575852965
0.296,874.073925274137
0.2965,874.074272201149
0.297,874.074616648606
0.2975,874.074958631028
0.298,874.075298162848
0.2985,874.075635258422
0.299,874.075969932016
0.2995,874.076302197813
0.3,874.076632069921
0.3005,874.076959562355
0.301,874.077284689058
0.3015,874.077607463886
0.302,874.077927900619
0.3025,874.078246012951
0.303,874.078561814504
0.3035,874.07887531881
0.304,874.079186539335
0.3045,874.079495489457
0.305,874.079802182481
0.3055,874.08010663163
0.306,874.080408850056
0.3065,874.080708850828
0.307,874.081006646945
0.3075,874.081302251329
0.308,874.08159567682
0.3085,874.081886936194
0.309,874.082176042143
0.3095,874.082463007291
0.31,874.082747844186
0.3105,874.083030565303
0.311,874.083311183047
0.3115,874.083589709746
0.312,874.083866157659
0.3125,874.084140538975
0.313,874.084412865809
0.3135,874.084683150204
0.314,874.084951404138
0.3145,874.085217639518
0.315,874.085481868177
0.3155,874.085744101882
0.316,874.086004352334
0.3165,874.086262631161
0.317,874.086518949926
0.3175,874.086773320122
0.318,874.087025753181
0.3185,874.087276260462
0.319,874.087524853259
0.3195,874.087771542802
0.32,874.088016340253
0.3205,874.088259256714
0.321,874.088500303216
0.3215,874.088739490728
0.322,874.088976830156
0.3225,874.089212332341
0.323,874.089446008062
0.3235,874.089677868035
0.324,874.089907922911
0.3245,874.09013618328
0.325,874.090362659676
0.3255,874.090587362561
0.326,874.090810302343
0.3265,874.091031489367
0.327,874.091250933921
0.3275,874.091468646227
0.328,874.09168463645
0.3285,874.091898914698
0.329,874.092111491018
0.3295,874.092322375396
0.33,874.092531577764
0.3305,874.092739107993
0.331,874.092944975899
0.3315,874.093149191237
0.332,874.093351763708
0.3325,874.093552702955
0.333,874.093752018564
0.3335,874.093949720069
0.334,874.094145816943
0.3345,874.094340318606
0.335,874.094533234424
0.3355,874.094724573706
0.336,874.094914345708
0.3365,874.095102559633
0.337,874.095289224628
0.3375,874.095474349787
0.338,874.095657944153
0.3385,874.095840016713
0.339,874.096020576404
0.3395,874.09619963211
0.34,874.096377192661
0.3405,874.096553266838
0.341,874.096727863373
0.3415,874.096900990939
0.342,874.097072658167
0.3425,874.097242873631
0.343,874.09741164586
0.3435,874.09757898333
0.344,874.097744894466
0.3445,874.09790938765
0.345,874.098072471209
0.3455,874.098234153422
0.346,874.098394442523
0.3465,874.098553346696
0.347,874.098710874073
0.3475,874.098867032748
0.348,874.099021830758
0.3485,874.099175276099
0.349,874.099327376716
0.3495,874.099478140513
0.35,874.099627575344
0.3505,874.099775689016
0.351,874.099922489292
0.3515,874.100067983892
0.352,874.100212180486
0.3525,874.100355086703
0.353,874.100496710125
0.3535,874.100637058293
0.354,874.1007761387
0.3545,874.100913958797
0.355,874.10105052599
0.3555,874.101185847645
0.356,874.101319931081
0.3565,874.101452783579
0.357,874.10158441237
0.3575,874.10171482465
0.358,874.10184402757
0.3585,874.101972028237
0.359,874.102098833722
0.3595,874.10222445105
0.36,874.102348887205
0.3605,874.102472149132
0.361,874.102594243734
0.3615,874.102715177876
0.362,874.102834958381
0.3625,874.10295359203
0.363,874.103071085569
0.3635,874.103187445701
0.364,874.103302679093
0.3645,874.103416792367
0.365,874.103529792113
0.3655,874.10364168488
0.366,874.103752477176
0.3665,874.103862175473
0.367,874.103970786208
0.3675,874.104078315777
0.368,874.10418477054
0.3685,874.104290156815
0.369,874.104394480892
0.3695,874.104497749017
0.37,874.1045999674
0.3705,874.104701142221
0.371,874.104801279614
0.3715,874.104900385686
0.372,874.104998466505
0.3725,874.105095528101
0.373,874.105191576472
0.3735,874.105286617579
0.374,874.105380657349
0.3745,874.105473701674
0.375,874.105565756414
0.3755,874.105656827389
0.376,874.10574692039
0.3765,874.105836041172
0.377,874.105924195459
0.3775,874.106011388936
0.378,874.106097627261
0.3785,874.106182916052
0.379,874.106267260903
0.3795,874.106350667366
0.38,874.106433140967
0.3805,874.106514687198
0.381,874.106595311517
0.3815,874.106675019352
0.382,874.106753816098
0.3825,874.106831707119
0.383,874.10690869775
0.3835,874.10698479329
0.384,874.107059999008
0.3845,874.107134320149
0.385,874.107207761916
0.3855,874.107280329491
0.386,874.107352028022
0.3865,874.107422862625
0.387,874.107492838388
0.3875,874.107561960373
0.388,874.107630233605
0.3885,874.107697663084
0.389,874.10776425378
0.3895,874.107830010636
0.39,874.10789493856
0.3905,874.107959042437
0.391,874.108022327123
0.3915,874.108084797443
0.392,874.108146458196
0.3925,874.108207301762
0.393,874.108267345633
0.3935,874.108326594526
0.394,874.108385053126
0.3945,874.108442726087
0.395,874.108499618034
0.3955,874.108555733562
0.396,874.108611077243
0.3965,874.108665653617
0.397,874.1087194672
0.3975,874.108772522483
0.398,874.108824823927
0.3985,874.108876375974
0.399,874.108927183034
0.3995,874.108977249494
0.4,874.109026579715
0.4005,874.109075178035
0.401,874.109123048769
0.4015,874.109170196195
0.402,874.109216624582
0.4025,874.109262338166
0.403,874.109307341158
0.4035,874.109351637746
0.404,874.109395232093
0.4045,874.10943812834
0.405,874.109480330603
0.4055,874.109521842973
0.406,874.109562669515
0.4065,874.109602814276
0.407,874.109642281276
0.4075,874.109681074511
0.408,874.109719197955
0.4085,874.109756655558
0.409,874.109793451245
0.4095,874.109829588924
0.41,874.109865072476
0.4105,874.109899905759
