"Physical Time: Physical Time (s)","Surface Average Rear Temp1 Monitor: Surface Average of Temperature (K)"
0.0005,873.000000000001
0.001,873.000000000004
0.0015,873.000000000024
0.002,873.000000000124
0.0025,873.000000000526
0.003,873.000000001861
0.0035,873.000000005631
0.004,873.000000015002
0.0045,873.000000035995
0.005,873.000000079176
0.0055,873.000000161903
0.006,873.000000311175
0.0065,873.000000567078
0.007,873.000000986828
0.0075,873.000001649339
0.008,873.000002660237
0.0085,873.000004157241
0.009,873.000006315779
0.00950000000000001,873.000009354574
0.01,873.000013541404
0.0105,873.000019198495
0.011,873.000026707654
0.0115,873.000036514945
0.012,873.000049134815
0.0125,873.000065153544
0.013,873.000085231987
0.0135,873.000110107499
0.014,873.000140595053
0.0145,873.000177587494
0.015,873.000222054942
0.0155,873.000275043378
0.016,873.000337674244
0.0165,873.000411135142
0.017,873.000496683767
0.0175,873.000595640001
0.018,873.000709381298
0.0185,873.000839337344
0.019,873.000986984235
0.0195,873.001153838311
0.02,873.001341449711
0.0205,873.001551395754
0.021,873.001785274197
0.0215,873.002044696457
0.022,873.002331280852
0.0225,873.002646645926
0.023,873.002992403912
0.0235,873.003370154388
0.024,873.003781478159
0.0245,873.004227931408
0.025,873.00471104015
0.0255,873.005232295016
0.026,873.005793146377
0.0265,873.00639499984
0.027,873.007039212111
0.0275,873.007727087247
0.028,873.008459873286
0.0285,873.009238759264
0.029,873.010064872613
0.0295,873.010939276923
0.03,873.011862970074
0.0305,873.012836882722
0.031,873.013861877111
0.0315,873.014938746224
0.032,873.016068213225
0.0325,873.017250931207
0.033,873.018487483201
0.0335,873.019778382444
0.034,873.021124072889
0.0345,873.022524929928
0.035,873.023981261314
0.0355,873.025493308275
0.036,873.027061246783
0.0365,873.028685188982
0.037,873.030365184736
0.0375,873.03210122331
0.038,873.033893235133
0.0385,873.035741093667
0.039,873.037644617334
0.0395,873.039603571516
0.04,873.041617670592
0.0405,873.043686580022
0.041,873.045809918454
0.0415,873.04798724966
0.042,873.050218104823
0.0425,873.052501983061
0.043,873.054838338394
0.0435,873.057226587505
0.044,873.059666112809
0.0445,873.062156264664
0.045,873.064696363407
0.0455,873.067285701343
0.046,873.069923544704
0.0465,873.072609135544
0.047,873.075341693615
0.0475,873.078120418174
0.048,873.080944489751
0.0485,873.083813071857
0.049,873.08672531264
0.0495,873.089680346485
0.05,873.092677295561
0.0505,873.095715271306
0.051,873.098793375858
0.0515,873.101910703431
0.052,873.105066341632
0.0525,873.108259372722
0.053,873.11148887482
0.0535,873.114753923059
0.054,873.118053590677
0.0545,873.121386950065
0.055,873.124753073756
0.0555,873.128151035366
0.056,873.131579910484
0.0565,873.135038777518
0.057,873.138526718482
0.0575,873.142042819751
0.058,873.145586172762
0.0585,873.149155874677
0.059,873.152751028999
0.0595,873.156370746153
0.06,873.160014144023
0.0605,873.163680348456
0.061,873.167368493728
0.0615,873.171077722973
0.062,873.17480718858
0.0625,873.178556052561
0.063,873.182323486887
0.0635,873.186108673784
0.064,873.189910806024
0.0645,873.193729087165
0.065,873.197562731777
0.0655,873.201410965649
0.066,873.205273025958
0.0665,873.209148161428
0.067,873.213035632464
0.0675,873.216934711265
0.068,873.220844681919
0.0685,873.224764840482
0.069,873.228694495035
0.0695,873.232632965734
0.07,873.236579584832
0.0705,873.240533696699
0.071,873.244494657823
0.0715000000000001,873.248461836798
0.0720000000000001,873.2524346143
0.0725000000000001,873.256412383057
0.0730000000000001,873.260394547799
0.0735000000000001,873.264380525211
0.0740000000000001,873.268369743864
0.0745000000000001,873.272361644146
0.0750000000000001,873.276355678184
0.0755000000000001,873.280351309755
0.0760000000000001,873.284348014192
0.0765000000000001,873.288345278289
0.0770000000000001,873.292342600192
0.0775000000000001,873.296339489288
0.0780000000000001,873.300335466094
0.0785000000000001,873.304330062131
0.0790000000000001,873.308322819806
0.0795000000000001,873.312313292281
0.0800000000000001,873.316301043344
0.0805000000000001,873.320285647277
0.0810000000000001,873.324266688714
0.0815000000000001,873.328243762512
0.0820000000000001,873.332216473602
0.0825000000000001,873.33618443685
0.0830000000000001,873.340147276917
0.0835000000000001,873.344104628109
0.0840000000000001,873.348056134231
0.0845000000000001,873.352001448448
0.0850000000000001,873.355940233128
0.0855000000000001,873.359872159702
0.0860000000000001,873.363796908513
0.0865000000000001,873.367714168669
0.0870000000000001,873.371623637894
0.0875000000000001,873.375525022383
0.0880000000000001,873.379418036656
0.0885000000000001,873.383302403406
0.0890000000000001,873.38717785336
0.0895000000000001,873.39104412513
0.0900000000000001,873.39490096507
0.0905000000000001,873.398748127132
0.0910000000000001,873.402585372727
0.0915000000000001,873.40641247058
0.0920000000000001,873.410229196592
0.0925000000000001,873.414035333704
0.0930000000000001,873.417830671754
0.0935000000000001,873.421615007348
0.0940000000000001,873.425388143721
0.0945000000000001,873.429149890604
0.0950000000000001,873.432900064098
0.0955000000000001,873.436638486537
0.0960000000000001,873.440364986366
0.0965000000000001,873.444079398011
0.0970000000000001,873.447781561755
0.0975000000000001,873.451471323615
0.0980000000000001,873.455148535222
0.0985000000000001,873.458813053697
0.0990000000000001,873.462464741538
0.0995000000000001,873.466103466502
0.1,873.469729101489
0.1005,873.47334152443
0.101,873.476940618177
0.1015,873.480526270393
0.102,873.484098373444
0.1025,873.487656824295
0.103,873.491201524402
0.1035,873.494732379616
0.104,873.498249300077
0.1045,873.501752200119
0.105,873.505240998169
0.1055,873.508715616655
0.106,873.512175981912
0.1065,873.515622024089
0.107,873.519053677056
0.1075,873.522470878323
0.108,873.525873568945
0.1085,873.529261693442
0.109,873.53263519971
0.1095,873.535994038946
0.11,873.53933816556
0.1105,873.542667537101
0.111,873.545982114177
0.1115,873.549281860381
0.112,873.552566742212
0.1125,873.555836729009
0.113,873.559091792872
0.1135,873.562331908598
0.114,873.565557053607
0.1145,873.56876720788
0.115,873.571962353888
0.1155,873.575142476531
0.116,873.578307563071
0.1165,873.581457603076
0.117,873.584592588352
0.1175,873.587712512888
0.118,873.590817372797
0.1185,873.593907166262
0.119,873.596981893471
0.1195,873.600041556573
0.12,873.603086159621
0.1205,873.606115708515
0.121,873.609130210959
0.1215,873.612129676402
0.122,873.615114115999
0.1225,873.618083542554
0.123,873.621037970481
0.1235,873.623977415749
0.124,873.626901895847
0.1245,873.629811429735
0.125,873.632706037801
0.1255,873.635585741821
0.126,873.638450564915
0.1265,873.641300531512
0.127,873.644135667305
0.1275,873.64695599922
0.128,873.64976155537
0.1285,873.652552365026
0.129,873.655328458576
0.1295,873.658089867494
0.13,873.660836624303
0.1305,873.663568762545
0.131,873.666286316742
0.1315,873.668989322375
0.132,873.671677815841
0.1325,873.674351834433
0.133,873.677011416302
0.1335,873.679656600433
0.134,873.682287426617
0.1345,873.684903935421
0.135,873.687506168161
0.1355,873.690094166879
0.136,873.692667974315
0.1365,873.69522763388
0.137,873.697773189636
0.1375,873.700304686268
0.138,873.702822169065
0.1385,873.705325683892
0.139,873.707815277174
0.1395,873.710290995867
0.14,873.712752887445
0.1405,873.715200999872
0.141,873.717635381588
0.1415,873.720056081485
0.142,873.722463148889
0.1425,873.724856633544
0.143,873.727236585589
0.1435,873.729603055546
0.144,873.731956094297
0.1445,873.734295753072
0.145,873.736622083427
0.1455,873.738935137235
0.146,873.741234966666
0.1465,873.74352162417
0.147,873.745795162466
0.1475,873.748055634528
0.148,873.750303093567
0.1485,873.752537593018
0.149,873.754759186533
0.1495,873.756967927956
0.15,873.759163871323
0.1505,873.761347070841
0.151,873.763517580878
0.1515,873.765675455956
0.152,873.767820750731
0.1525,873.769953519989
0.153,873.772073818632
0.1535,873.774181701668
0.154,873.776277224201
0.1545,873.778360441421
0.155,873.780431408593
0.1555,873.78249018105
0.156,873.784536814183
0.1565,873.78657136343
0.157,873.788593884268
0.1575,873.790604432207
0.158,873.792603062781
0.1585,873.794589831537
0.159,873.796564794029
0.1595,873.798528005812
0.16,873.800479522434
0.1605,873.802419399426
0.161,873.804347692299
0.1615,873.806264456536
0.162,873.808169747582
0.1625,873.810063620844
0.163,873.811946131679
0.1635,873.813817335391
0.164,873.815677287226
0.1645,873.817526042362
0.165,873.819363655911
0.1655,873.821190182903
0.166,873.823005678292
0.1665,873.824810196945
0.167,873.826603793635
0.1675,873.828386523043
0.168,873.830158439749
0.1685,873.831919598226
0.169,873.83367005284
0.1695,873.835409857846
0.17,873.837139067378
0.1705,873.838857735452
0.171,873.840565915958
0.1715,873.842263662655
0.172,873.843951029178
0.1725,873.845628069019
0.173,873.847294835533
0.1735,873.848951381937
0.174,873.850597761299
0.1745,873.852234026542
0.175,873.853860230436
0.1755,873.855476425601
0.176,873.857082664498
0.1765,873.85867899943
0.177,873.860265482539
0.1775,873.861842165806
0.178,873.863409101042
0.1785,873.864966339894
0.179,873.866513933835
0.1795,873.868051934171
0.18,873.869580392029
0.1805,873.871099358362
0.181,873.872608883948
0.1815,873.87410901938
0.182,873.875599815075
0.1825,873.877081321264
0.183,873.878553587996
0.1835,873.880016665132
0.184,873.88147060235
0.1845,873.882915449134
0.185,873.884351254783
0.1855,873.885778068404
0.186,873.887195938912
0.1865,873.888604915028
0.187,873.890005045279
0.1875,873.891396377999
0.188,873.892778961324
0.1885,873.894152843194
0.189,873.895518071352
0.1895,873.896874693343
0.19,873.898222398183
0.1905,873.899561644
0.191,873.900892468734
0.1915,873.902214905906
0.192,873.903528993345
0.1925,873.904834772059
0.193,873.906132284821
0.1935,873.907421575309
0.194,873.908702687654
0.1945,873.909975666187
0.195,873.911240555299
0.1955,873.912497399358
0.196,873.913746242663
0.1965,873.914987129406
0.197,873.916220103653
0.1975,873.91744520933
0.198,873.918662490204
0.1985,873.919871989883
0.199,873.921073751803
0.1995,873.922267819226
0.2,873.923454235234
0.2005,873.924633042723
0.201,873.925804284406
0.2015,873.926968002805
0.202,873.928124240253
0.2025,873.929273038888
0.203,873.930414440657
0.2035,873.93154848731
0.204,873.932675220402
0.2045,873.933794681291
0.205,873.93490691114
0.2055,873.936011950911
0.206,873.937109841371
0.2065,873.938200623086
0.207,873.939284336428
0.2075,873.940361021566
0.208,873.941430718475
0.2085,873.942493466928
0.209,873.943549306502
0.2095,873.944598276577
0.21,873.945640416333
0.2105,873.946675764753
0.211,873.947704360624
0.2115,873.948726242535
0.212,873.949741448879
0.2125,873.950750017853
0.213,873.951751987457
0.2135,873.952747395498
0.214,873.953736279585
0.2145,873.954718677135
0.215,873.955694625369
0.2155,873.956664161319
0.216,873.957627321818
0.2165,873.958584143509
0.217,873.959534662845
0.2175,873.960478916085
0.218,873.961416939299
0.2185,873.962348768365
0.219,873.963274438973
0.2195,873.964193986624
0.22,873.965107446629
0.2205,873.966014854113
0.221,873.966916244013
0.2215,873.96781165108
0.222,873.968701109877
0.2225,873.969584654784
0.223,873.970462319997
0.2235,873.971334139526
0.224,873.972200147198
0.2245,873.973060376659
0.225,873.973914861372
0.2255,873.97476363462
0.226,873.975606729503
0.2265,873.976444178942
0.227,873.977276015682
0.2275,873.978102272285
0.228,873.97892298114
0.2285,873.979738174454
0.229,873.980547884262
0.2295,873.98135214242
0.23,873.982150980613
0.2305,873.982944430349
0.231,873.983732522962
0.2315,873.984515289618
0.232,873.985292761305
0.2325,873.986064968846
0.233,873.986831942888
0.2335,873.987593713911
0.234,873.988350312228
0.2345,873.98910176798
0.235,873.989848111143
0.2355,873.990589371525
0.236,873.99132557877
0.2365,873.992056762354
0.237,873.992782951591
0.2375,873.993504175632
0.238,873.994220463461
0.2385,873.994931843904
0.239,873.995638345624
0.2395,873.996339997123
0.24,873.997036826743
0.2405,873.997728862668
0.241,873.998416132923
0.2415,873.999098665376
0.242,873.999776487735
0.2425,874.000449627557
0.243,874.001118112239
0.2435,874.001781969026
0.244,874.002441225008
0.2445,874.003095907123
0.245,874.003746042156
0.2455,874.004391656739
0.246,874.005032777356
0.2465,874.005669430337
0.247,874.006301641867
0.2475,874.006929437979
0.248,874.00755284456
0.2485,874.008171887349
0.249,874.008786591938
0.2495,874.009396983774
0.25,874.01000308816
0.2505,874.010604930254
0.251,874.01120253507
0.2515,874.011795927479
0.252,874.012385132212
0.2525,874.012970173856
0.253,874.013551076859
0.2535,874.014127865531
0.254,874.014700564038
0.2545,874.015269196412
0.255,874.015833786546
0.2555,874.016394358196
0.256,874.01695093498
0.2565,874.017503540384
0.257,874.018052197758
0.2575,874.018596930314
0.258,874.019137761137
0.2585,874.019674713176
0.259,874.020207809246
0.2595,874.020737072035
0.26,874.021262524097
0.2605,874.021784187859
0.261,874.022302085615
0.2615,874.022816239535
0.262,874.023326671658
0.2625,874.023833403897
0.263,874.024336458037
0.2635,874.024835855741
0.264,874.025331618542
0.2645,874.025823767853
0.265,874.026312324961
0.2655,874.02679731103
0.266,874.027278747101
0.2665,874.027756654096
0.267,874.028231052813
0.2675,874.02870196393
0.268,874.029169408007
0.2685,874.029633405484
0.269,874.030093976681
0.2695,874.030551141802
0.27,874.031004920934
0.2705,874.031455334047
0.271,874.031902400994
0.2715,874.032346141515
0.272,874.032786575233
0.2725,874.033223721659
0.273,874.03365760019
0.2735,874.03408823011
0.274,874.03451563059
0.2745,874.034939820692
0.275,874.035360819366
0.2755,874.03577864545
0.276,874.036193317676
0.2765,874.036604854663
0.277,874.037013274925
0.2775,874.037418596866
0.278,874.037820838784
0.2785,874.038220018871
0.279,874.03861615521
0.2795,874.039009265782
0.28,874.039399368462
0.2805,874.03978648102
0.281,874.040170621123
0.2815,874.040551806335
0.282,874.040930054118
0.2825,874.041305381832
0.283,874.041677806735
0.2835,874.042047345983
0.284,874.042414016636
0.2845,874.04277783565
0.285,874.043138819884
0.2855,874.043496986099
0.286,874.043852350957
0.2865,874.044204931022
0.287,874.044554742765
0.2875,874.044901802555
0.288,874.045246126668
0.2885,874.045587731288
0.289,874.045926632499
0.2895,874.046262846294
0.29,874.046596388571
0.2905,874.046927275137
0.291,874.047255521705
0.2915,874.047581143895
0.292,874.047904157238
0.2925,874.048224577173
0.293,874.048542419047
0.2935,874.04885769812
0.294,874.049170429562
0.2945,874.049480628451
0.295,874.04978830978
0.2955,874.050093488454
0.296,874.050396179289
0.2965,874.050696397015
0.297,874.050994156277
0.2975,874.051289471631
0.298,874.05158235755
0.2985,874.051872828422
0.299,874.052160898551
0.2995,874.052446582155
0.3,874.05272989337
0.3005,874.05301084625
0.301,874.053289454765
0.3015,874.053565732804
0.302,874.053839694173
0.3025,874.054111352599
0.303,874.054380721728
0.3035,874.054647815125
0.304,874.054912646275
0.3045,874.055175228585
0.305,874.055435575384
0.3055,874.055693699921
0.306,874.055949615368
0.3065,874.056203334819
0.307,874.056454871291
0.3075,874.056704237727
0.308,874.056951446991
0.3085,874.057196511872
0.309,874.057439445085
0.3095,874.05768025927
0.31,874.057918966991
0.3105,874.058155580742
0.311,874.058390112939
0.3115,874.058622575928
0.312,874.058852981981
0.3125,874.059081343299
0.313,874.059307672011
0.3135,874.059531980174
0.314,874.059754279774
0.3145,874.059974582727
0.315,874.060192900881
0.3155,874.060409246009
0.316,874.060623629821
0.3165,874.060836063953
0.317,874.061046559976
0.3175,874.061255129392
0.318,874.061461783633
0.3185,874.061666534068
0.319,874.061869391996
0.3195,874.062070368649
0.32,874.062269475196
0.3205,874.062466722739
0.321,874.062662122312
0.3215,874.062855684888
0.322,874.063047421374
0.3225,874.063237342611
0.323,874.063425459379
0.3235,874.063611782392
0.324,874.063796322303
0.3245,874.063979089702
0.325,874.064160095116
0.3255,874.064339349008
0.326,874.064516861785
0.3265,874.064692643786
0.327,874.064866705295
0.3275,874.065039056531
0.328,874.065209707656
0.3285,874.06537866877
0.329,874.065545949914
0.3295,874.065711561071
0.33,874.065875512165
0.3305,874.066037813059
0.331,874.066198473561
0.3315,874.066357503421
0.332,874.066514912329
0.3325,874.066670709921
0.333,874.066824905774
0.3335,874.066977509409
0.334,874.067128530291
0.3345,874.067277977832
0.335,874.067425861384
0.3355,874.067572190246
0.336,874.067716973663
0.3365,874.067860220824
0.337,874.068001940865
0.3375,874.068142142867
0.338,874.06828083586
0.3385,874.068418028817
0.339,874.068553730661
0.3395,874.068687950262
0.34,874.068820696437
0.3405,874.068951977951
0.341,874.069081803517
0.3415,874.069210181799
0.342,874.069337121406
0.3425,874.0694626309
0.343,874.069586718791
0.3435,874.069709393538
0.344,874.069830663552
0.3445,874.069950537193
0.345,874.070069022772
0.3455,874.070186128551
0.346,874.070301862743
0.3465,874.070416233514
0.347,874.07052924898
0.3475,874.07064091721
0.348,874.070751246226
0.3485,874.070860244002
0.349,874.070967918464
0.3495,874.071074277494
0.35,874.071179328925
0.3505,874.071283080545
0.351,874.071385540096
0.3515,874.071486715273
0.352,874.071586613727
0.3525,874.071685243065
0.353,874.071782610846
0.3535,874.071878724588
0.354,874.071973591762
0.3545,874.072067219795
0.355,874.072159616071
0.3555,874.072250787932
0.356,874.072340742675
0.3565,874.072429487552
0.357,874.072517029776
0.3575,874.072603376516
0.358,874.072688534897
0.3585,874.072772512005
0.359,874.072855314882
0.3595,874.07293695053
0.36,874.073017425907
0.3605,874.073096747933
0.361,874.073174923486
0.3615,874.073251959404
0.362,874.073327862483
0.3625,874.07340263948
0.363,874.073476297112
0.3635,874.073548842058
0.364,874.073620280954
0.3645,874.0736906204
0.365,874.073759866957
0.3655,874.073828027144
0.366,874.073895107446
0.3665,874.073961114306
0.367,874.074026054132
0.3675,874.074089933292
0.368,874.074152758117
0.3685,874.074214534901
0.369,874.074275269901
0.3695,874.074334969337
0.37,874.07439363939
0.3705,874.07445128621
0.371,874.074507915905
0.3715,874.07456353455
0.372,874.074618148183
0.3725,874.074671762808
0.373,874.074724384391
0.3735,874.074776018865
0.374,874.074826672128
0.3745,874.07487635004
0.375,874.074925058431
0.3755,874.074972803093
0.376,874.075019589786
0.3765,874.075065424236
0.377,874.075110312133
0.3775,874.075154259135
0.378,874.075197270867
0.3785,874.075239352921
0.379,874.075280510854
0.3795,874.075320750192
0.38,874.075360076428
0.3805,874.075398495022
0.381,874.075436011403
0.3815,874.075472630967
0.382,874.075508359078
0.3825,874.075543201069
0.383,874.075577162241
0.3835,874.075610247864
0.384,874.075642463177
0.3845,874.075673813389
0.385,874.075704303675
0.3855,874.075733939183
0.386,874.075762725029
0.3865,874.0757906663
0.387,874.07581776805
0.3875,874.075844035307
0.388,874.075869473067
0.3885,874.075894086297
0.389,874.075917879934
0.3895,874.075940858888
0.39,874.075963028038
0.3905,874.075984392235
0.391,874.076004956301
0.3915,874.07602472503
0.392,874.076043703187
0.3925,874.076061895509
0.393,874.076079306707
0.3935,874.076095941461
0.394,874.076111804425
0.3945,874.076126900226
0.395,874.076141233463
0.3955,874.076154808708
0.396,874.076167630506
0.3965,874.076179703376
0.397,874.076191031808
0.3975,874.076201620268
0.398,874.076211473194
0.3985,874.076220594999
0.399,874.07622899007
0.3995,874.076236662766
0.4,874.076243617423
0.4005,874.07624985835
0.401,874.076255389829
0.4015,874.076260216121
0.402,874.076264341459
0.4025,874.07626777005
0.403,874.076270506078
0.4035,874.076272553701
0.404,874.076273917056
0.4045,874.07627460025
0.405,874.07627460737
0.4055,874.076273942477
0.406,874.076272609608
0.4065,874.076270612778
0.407,874.076267955976
0.4075,874.076264643168
0.408,874.076260678298
0.4085,874.076256065285
0.409,874.076250808027
0.4095,874.076244910395
0.41,874.076238376242
