"Time","Surface Average Rear Temp1 Monitor: Surface Average Rear Temp1 Monitor (K)"
0.001,1573.0000000000005
0.002,1573.0000000000005
0.003,1573.000000000001
0.004,1573.0000000000027
0.005,1573.000000000013
0.006,1573.0000000000507
0.007,1573.0000000001728
0.008,1573.000000000523
0.009000000000000001,1573.0000000014224
0.010000000000000002,1573.00000000355
0.011000000000000003,1573.0000000082189
0.012000000000000004,1573.0000000178165
0.013000000000000005,1573.0000000364507
0.014000000000000005,1573.0000000708364
0.015000000000000006,1573.0000001314754
0.016000000000000007,1573.0000002341358
0.017000000000000008,1573.000000401667
0.01800000000000001,1573.0000006661005
0.01900000000000001,1573.0000010710457
0.02000000000000001,1573.0000016742804
0.02100000000000001,1573.0000025504914
0.022000000000000013,1573.0000037940754
0.023000000000000013,1573.0000055218868
0.024000000000000014,1573.0000078758444
0.025000000000000015,1573.0000110253015
0.026000000000000016,1573.0000151690874
0.027000000000000017,1573.0000205371239
0.028000000000000018,1573.0000273916005
0.02900000000000002,1573.000036027616
0.03000000000000002,1573.000046773394
0.03100000000000002,1573.0000599895598
0.03200000000000002,1573.0000760683838
0.03300000000000002,1573.0000954322572
0.03400000000000002,1573.000118531717
0.035000000000000024,1573.0001458430568
0.036000000000000025,1573.000177865557
0.037000000000000026,1573.0002151184242
0.03800000000000003,1573.0002581374763
0.03900000000000003,1573.0003074716558
0.04000000000000003,1573.0003636794313
0.04100000000000003,1573.0004273251484
0.04200000000000003,1573.0004989753838
0.04300000000000003,1573.0005791953636
0.04400000000000003,1573.0006685454794
0.04500000000000003,1573.000767577954
0.046000000000000034,1573.0008768336834
0.047000000000000035,1573.0009968392899
0.048000000000000036,1573.0011281043928
0.04900000000000004,1573.001271119136
0.05000000000000004,1573.0014263519552
0.05100000000000004,1573.0015942476145
0.05200000000000004,1573.0017752255035
0.05300000000000004,1573.001969678183
0.05400000000000004,1573.0021779701965
0.05500000000000004,1573.002400437112
0.05600000000000004,1573.0026373869293
0.057000000000000044,1573.0028890936553
0.058000000000000045,1573.0031558020978
0.059000000000000045,1573.003437726773
0.060000000000000046,1573.0037350518407
0.06100000000000005,1573.0040479312754
0.06200000000000005,1573.0043764892266
0.06300000000000004,1573.0047208205397
0.06400000000000004,1573.0050809913944
0.06500000000000004,1573.0054570400566
0.06600000000000004,1573.0058489777066
0.06700000000000005,1573.0062567893665
0.06800000000000005,1573.0066804348633
0.06900000000000005,1573.0071198498626
0.07000000000000005,1573.007574946939
0.07100000000000005,1573.0080456166727
0.07200000000000005,1573.0085317287733
0.07300000000000005,1573.0090331332117
0.07400000000000005,1573.0095496613642
0.07500000000000005,1573.0100811271511
0.07600000000000005,1573.0106273281679
0.07700000000000005,1573.0111880468062
0.07800000000000006,1573.0117630513603
0.07900000000000006,1573.0123520971065
0.08000000000000006,1573.0129549273593
0.08100000000000006,1573.0135712745075
0.08200000000000006,1573.0142008610105
0.08300000000000006,1573.0148434003647
0.08400000000000006,1573.0154985980448
0.08500000000000006,1573.0161661523953
0.08600000000000006,1573.0168457555012
0.08700000000000006,1573.0175370940124
0.08800000000000006,1573.0182398499326
0.08900000000000007,1573.018953701375
0.09000000000000007,1573.0196783232757
0.09100000000000007,1573.0204133880811
0.09200000000000007,1573.0211585663833
0.09300000000000007,1573.0219135275304
0.09400000000000007,1573.0226779402044
0.09500000000000007,1573.023451472957
0.09600000000000007,1573.024233794712
0.09700000000000007,1573.025024575247
0.09800000000000007,1573.0258234856315
0.09900000000000007,1573.0266301986387
0.10000000000000007,1573.0274443891287
0.10100000000000008,1573.0282657344067
0.10200000000000008,1573.0290939145484
0.10300000000000008,1573.0299286127015
0.10400000000000008,1573.030769515365
0.10500000000000008,1573.0316163083448
0.10600000000000008,1573.032468691509
0.10700000000000008,1573.0333263620087
0.10800000000000008,1573.0341890215998
0.10900000000000008,1573.0350563766938
0.11000000000000008,1573.035928138377
0.11100000000000008,1573.0368040224855
0.11200000000000009,1573.037683749702
0.11300000000000009,1573.0385670456367
0.11400000000000009,1573.0394536409171
0.11500000000000009,1573.0403432712496
0.11600000000000009,1573.0412356774937
0.11700000000000009,1573.0421306056944
0.11800000000000009,1573.043027807137
0.11900000000000009,1573.0439270383627
0.12000000000000009,1573.0448280611931
0.1210000000000001,1573.045730642741
0.1220000000000001,1573.046634555404
0.1230000000000001,1573.0475395768638
0.1240000000000001,1573.0484454900732
0.12500000000000008,1573.049352083227
0.12600000000000008,1573.050259149741
0.12700000000000009,1573.051166488223
0.12800000000000009,1573.0520739024198
0.1290000000000001,1573.0529812011912
0.1300000000000001,1573.0538881984498
0.1310000000000001,1573.054794713118
0.1320000000000001,1573.0557005690664
0.1330000000000001,1573.056605595055
0.1340000000000001,1573.0575096246819
0.1350000000000001,1573.0584124963054
0.1360000000000001,1573.0593140529852
0.1370000000000001,1573.0602141424142
0.1380000000000001,1573.0611126168442
0.1390000000000001,1573.0620093330194
0.1400000000000001,1573.062904152093
0.1410000000000001,1573.0637969395682
0.1420000000000001,1573.0646875652071
0.1430000000000001,1573.0655759029648
0.1440000000000001,1573.066461830908
0.1450000000000001,1573.0673452311391
0.1460000000000001,1573.0682259897205
0.1470000000000001,1573.0691039965934
0.1480000000000001,1573.0699791454997
0.1490000000000001,1573.0708513339112
0.1500000000000001,1573.0717204629452
0.1510000000000001,1573.0725864372885
0.1520000000000001,1573.0734491651247
0.1530000000000001,1573.0743085580527
0.1540000000000001,1573.0751645310177
0.1550000000000001,1573.0760170022277
0.1560000000000001,1573.0768658930874
0.1570000000000001,1573.0777111281172
0.1580000000000001,1573.0785526348864
0.1590000000000001,1573.0793903439383
0.16000000000000011,1573.0802241887206
0.16100000000000012,1573.0810541055125
0.16200000000000012,1573.0818800333598
0.16300000000000012,1573.0827019140017
0.16400000000000012,1573.0835196918085
0.16500000000000012,1573.0843333137088
0.16600000000000012,1573.0851427291375
0.16700000000000012,1573.085947889951
0.16800000000000012,1573.0867487503854
0.16900000000000012,1573.0875452669816
0.17000000000000012,1573.0883373985284
0.17100000000000012,1573.0891251060023
0.17200000000000013,1573.08990835251
0.17300000000000013,1573.0906871032287
0.17400000000000013,1573.0914613253522
0.17500000000000013,1573.0922309880348
0.17600000000000013,1573.0929960623353
0.17700000000000013,1573.0937565211675
0.17800000000000013,1573.0945123392407
0.17900000000000013,1573.0952634930206
0.18000000000000013,1573.0960099606718
0.18100000000000013,1573.0967517220056
0.18200000000000013,1573.0974887584407
0.18300000000000013,1573.0982210529519
0.18400000000000014,1573.098948590026
0.18500000000000014,1573.0996713556117
0.18600000000000014,1573.1003893370864
0.18700000000000014,1573.1011025232042
0.18800000000000014,1573.1018109040594
0.18900000000000014,1573.1025144710432
0.19000000000000014,1573.1032132168039
0.19100000000000014,1573.1039071352118
0.19200000000000014,1573.1045962213145
0.19300000000000014,1573.1052804713086
0.19400000000000014,1573.1059598824952
0.19500000000000015,1573.1066344532517
0.19600000000000015,1573.1073041829886
0.19700000000000015,1573.107969072128
0.19800000000000015,1573.108629122062
0.19900000000000015,1573.1092843351225
0.20000000000000015,1573.109934714551
0.20100000000000015,1573.1105802644709
0.20200000000000015,1573.1112209898524
0.20300000000000015,1573.1118568964857
0.20400000000000015,1573.1124879909594
0.20500000000000015,1573.113114280621
0.20600000000000016,1573.1137357735645
0.20700000000000016,1573.1143524785887
0.20800000000000016,1573.1149644051875
0.20900000000000016,1573.1155715635152
0.21000000000000016,1573.1161739643649
0.21100000000000016,1573.1167716191471
0.21200000000000016,1573.1173645398671
0.21300000000000016,1573.117952739099
0.21400000000000016,1573.118536229969
0.21500000000000016,1573.1191150261316
0.21600000000000016,1573.1196891417515
0.21700000000000016,1573.1202585914793
0.21800000000000017,1573.12082339044
0.21900000000000017,1573.1213835542073
0.22000000000000017,1573.121939098788
0.22100000000000017,1573.1224900406048
0.22200000000000017,1573.1230363964785
0.22300000000000017,1573.1235781836122
0.22400000000000017,1573.1241154195739
0.22500000000000017,1573.124648077637
0.22600000000000017,1573.1251762270526
0.22700000000000017,1573.1256998859756
0.22800000000000017,1573.126219072136
0.22900000000000018,1573.1267338036182
0.23000000000000018,1573.1272440990085
0.23100000000000018,1573.1277499773769
0.23200000000000018,1573.1282514582083
0.23300000000000018,1573.128748561363
0.23400000000000018,1573.1292413070069
0.23500000000000018,1573.129729715592
0.23600000000000018,1573.130213807819
0.23700000000000018,1573.1306936046092
0.23800000000000018,1573.1311691270946
0.23900000000000018,1573.131640396596
0.24000000000000019,1573.132107434605
0.2410000000000002,1573.1325702627782
0.2420000000000002,1573.1330289029192
0.2430000000000002,1573.1334833769706
0.2440000000000002,1573.1339337070044
0.2450000000000002,1573.1343799152082
0.2460000000000002,1573.1348220238797
0.2470000000000002,1573.1352600554192
0.2480000000000002,1573.1356940323208
0.2490000000000002,1573.1361239771554
0.25000000000000017,1573.136549912579
0.25100000000000017,1573.1369718613123
0.25200000000000017,1573.1373898461395
0.25300000000000017,1573.137803889899
0.25400000000000017,1573.1382140154792
0.25500000000000017,1573.1386202458107
0.25600000000000017,1573.1390226038577
0.2570000000000002,1573.1394211126164
0.2580000000000002,1573.139815795111
0.2590000000000002,1573.1402066743772
0.2600000000000002,1573.1405937734676
0.2610000000000002,1573.1409771154442
0.2620000000000002,1573.14135672337
0.2630000000000002,1573.141732620307
0.2640000000000002,1573.142104829311
0.2650000000000002,1573.142473373427
0.2660000000000002,1573.1428382756822
0.2670000000000002,1573.1431995590897
0.2680000000000002,1573.1435572466314
0.2690000000000002,1573.14391136127
0.2700000000000002,1573.1442619259315
0.2710000000000002,1573.1446089635065
0.2720000000000002,1573.14495249685
0.2730000000000002,1573.145292548775
0.2740000000000002,1573.1456291420473
0.2750000000000002,1573.1459622993843
0.2760000000000002,1573.1462920434558
0.2770000000000002,1573.1466183968735
0.2780000000000002,1573.1469413821935
0.2790000000000002,1573.1472610219116
0.2800000000000002,1573.1475773384623
0.2810000000000002,1573.1478903542136
0.2820000000000002,1573.1482000914687
0.2830000000000002,1573.148506572459
0.2840000000000002,1573.1488098193456
0.2850000000000002,1573.1491098542153
0.2860000000000002,1573.1494066990797
0.2870000000000002,1573.1497003758702
0.2880000000000002,1573.1499909064412
0.2890000000000002,1573.1502783125652
0.2900000000000002,1573.1505626159305
0.2910000000000002,1573.150843838143
0.2920000000000002,1573.1511220007162
0.2930000000000002,1573.1513971250838
0.2940000000000002,1573.1516692325836
0.2950000000000002,1573.1519383444684
0.2960000000000002,1573.1522044818937
0.2970000000000002,1573.1524676659262
0.2980000000000002,1573.1527279175366
0.2990000000000002,1573.1529852575982
0.3000000000000002,1573.153239706892
0.3010000000000002,1573.1534912860989
0.3020000000000002,1573.1537400158015
0.3030000000000002,1573.1539859164836
0.3040000000000002,1573.1542290085295
0.3050000000000002,1573.1544693122225
0.3060000000000002,1573.1547068477412
0.3070000000000002,1573.1549416351672
0.3080000000000002,1573.1551736944766
0.3090000000000002,1573.155403045541
0.3100000000000002,1573.1556297081281
0.3110000000000002,1573.1558537019018
0.3120000000000002,1573.1560750464225
0.3130000000000002,1573.1562937611411
0.3140000000000002,1573.1565098654055
0.3150000000000002,1573.1567233784558
0.3160000000000002,1573.1569343194278
0.3170000000000002,1573.1571427073463
0.3180000000000002,1573.1573485611316
0.31900000000000023,1573.1575518995955
0.32000000000000023,1573.157752741445
0.32100000000000023,1573.1579511052748
0.32200000000000023,1573.1581470095746
0.32300000000000023,1573.1583404727223
0.32400000000000023,1573.1585315129935
0.32500000000000023,1573.1587201485502
0.32600000000000023,1573.1589063974495
0.32700000000000023,1573.159090277636
0.32800000000000024,1573.1592718069496
0.32900000000000024,1573.1594510031211
0.33000000000000024,1573.1596278837728
0.33100000000000024,1573.1598024664167
0.33200000000000024,1573.1599747684595
0.33300000000000024,1573.1601448071988
0.33400000000000024,1573.1603125998224
0.33500000000000024,1573.160478163415
0.33600000000000024,1573.1606415149465
0.33700000000000024,1573.160802671286
0.33800000000000024,1573.1609616491924
0.33900000000000025,1573.161118465317
0.34000000000000025,1573.1612731362052
0.34100000000000025,1573.161425678297
0.34200000000000025,1573.1615761079227
0.34300000000000025,1573.1617244413078
0.34400000000000025,1573.1618706945753
0.34500000000000025,1573.1620148837362
0.34600000000000025,1573.1621570247034
0.34700000000000025,1573.1622971332788
0.34800000000000025,1573.1624352251608
0.34900000000000025,1573.16257131595
0.35000000000000026,1573.1627054211317
0.35100000000000026,1573.162837556098
0.35200000000000026,1573.1629677361334
0.35300000000000026,1573.1630959764173
0.35400000000000026,1573.1632222920323
0.35500000000000026,1573.1633466979522
0.35600000000000026,1573.1634692090545
0.35700000000000026,1573.1635898401128
0.35800000000000026,1573.1637086057995
0.35900000000000026,1573.1638255206892
0.36000000000000026,1573.1639405992544
0.36100000000000027,1573.1640538558665
0.36200000000000027,1573.1641653048018
0.36300000000000027,1573.1642749602343
0.36400000000000027,1573.1643828362396
0.36500000000000027,1573.1644889468012
0.36600000000000027,1573.1645933057957
0.36700000000000027,1573.16469592701
0.36800000000000027,1573.164796824133
0.36900000000000027,1573.164896010756
0.3700000000000003,1573.1649935003768
0.3710000000000003,1573.1650893063959
0.3720000000000003,1573.1651834421205
0.3730000000000003,1573.1652759207648
0.3740000000000003,1573.1653667554472
0.3750000000000003,1573.1654559591948
0.3760000000000003,1573.1655435449404
0.3770000000000003,1573.1656295255254
0.3780000000000003,1573.1657139137014
0.3790000000000003,1573.1657967221274
0.3800000000000003,1573.1658779633674
0.3810000000000003,1573.1659576499042
0.3820000000000003,1573.166035794124
0.3830000000000003,1573.166112408325
0.3840000000000003,1573.16618750472
0.3850000000000003,1573.1662610954297
0.3860000000000003,1573.1663331924904
0.3870000000000003,1573.1664038078488
0.3880000000000003,1573.1664729533663
0.3890000000000003,1573.1665406408183
0.3900000000000003,1573.1666068818938
0.3910000000000003,1573.1666716881966
0.3920000000000003,1573.166735071245
0.3930000000000003,1573.1667970424785
0.3940000000000003,1573.1668576132477
0.3950000000000003,1573.1669167948207
0.3960000000000003,1573.1669745983852
0.3970000000000003,1573.1670310350432
0.3980000000000003,1573.167086115821
0.3990000000000003,1573.167139851658
0.4000000000000003,1573.1671922534174
0.4010000000000003,1573.1672433318795
0.4020000000000003,1573.1672930977472
0.4030000000000003,1573.1673415616424
0.4040000000000003,1573.1673887341094
0.4050000000000003,1573.167434625616
0.4060000000000003,1573.1674792465492
0.4070000000000003,1573.167522607222
0.4080000000000003,1573.1675647178708
0.4090000000000003,1573.1676055886528
0.4100000000000003,1573.167645229653
0.4110000000000003,1573.1676836508805
0.4120000000000003,1573.1677208622718
0.4130000000000003,1573.1677568736823
0.4140000000000003,1573.1677916949031
0.4150000000000003,1573.167825304862
0.4160000000000003,1573.1678577472035
0.4170000000000003,1573.1678890319436
0.4180000000000003,1573.1679191681685
0.4190000000000003,1573.1679481647484
0.4200000000000003,1573.1679760305394
0.4210000000000003,1573.1680027744278
0.4220000000000003,1573.168028405328
0.4230000000000003,1573.1680529321522
0.4240000000000003,1573.1680763638049
0.4250000000000003,1573.16809870916
0.4260000000000003,1573.1681199770567
0.4270000000000003,1573.1681401762842
0.4280000000000003,1573.1681593155836
0.4290000000000003,1573.1681774036408
0.4300000000000003,1573.1681944490872
0.4310000000000003,1573.168210460493
0.43200000000000033,1573.1682254463697
0.43300000000000033,1573.1682394151699
0.43400000000000033,1573.1682523752834
0.43500000000000033,1573.1682643350405
0.43600000000000033,1573.16827530271
0.43700000000000033,1573.168285286502
0.43800000000000033,1573.1682942945629
0.43900000000000033,1573.1683023349794
0.44000000000000034,1573.1683094157804
0.44100000000000034,1573.1683155449314
0.44200000000000034,1573.1683207303397
0.44300000000000034,1573.1683249798539
0.44400000000000034,1573.168328301263
0.44500000000000034,1573.1683307022959
0.44600000000000034,1573.1683321906269
0.44700000000000034,1573.1683327738683
0.44800000000000034,1573.1683324595763
0.44900000000000034,1573.1683312552523
0.45000000000000034,1573.1683291683353
0.45100000000000035,1573.168326206214
0.45200000000000035,1573.1683223762182
0.45300000000000035,1573.1683176856197
0.45400000000000035,1573.168312141639
0.45500000000000035,1573.168305751441
0.45600000000000035,1573.168298522134
0.45700000000000035,1573.168290460773
0.45800000000000035,1573.1682815743593
0.45900000000000035,1573.1682718698432
0.46000000000000035,1573.1682613541166
0.46100000000000035,1573.1682500340237
0.46200000000000035,1573.1682379163542
0.46300000000000036,1573.1682250078472
0.46400000000000036,1573.1682113151876
0.46500000000000036,1573.1681968450118
0.46600000000000036,1573.1681816039043
0.46700000000000036,1573.1681655984003
0.46800000000000036,1573.168148834983
0.46900000000000036,1573.168131320088
0.47000000000000036,1573.1681130600991
0.47100000000000036,1573.1680940613537
0.47200000000000036,1573.1680743301388
0.47300000000000036,1573.168053872695
0.47400000000000037,1573.168032695212
0.47500000000000037,1573.1680108038342
0.47600000000000037,1573.1679882046583
0.47700000000000037,1573.1679649037362
0.47800000000000037,1573.1679409070662
0.47900000000000037,1573.1679162206103
0.48000000000000037,1573.1678908502781
0.48100000000000037,1573.1678648019363
0.4820000000000004,1573.167838081402
0.4830000000000004,1573.167810694454
0.4840000000000004,1573.1677826468233
0.4850000000000004,1573.1677539441985
0.4860000000000004,1573.1677245922185
0.4870000000000004,1573.1676945964878
0.4880000000000004,1573.1676639625605
0.4890000000000004,1573.167632695949
0.4900000000000004,1573.1676008021266
0.4910000000000004,1573.1675682865236
0.4920000000000004,1573.1675351545234
0.4930000000000004,1573.1675014114728
0.4940000000000004,1573.1674670626787
0.4950000000000004,1573.167432113399
0.4960000000000004,1573.1673965688612
0.4970000000000004,1573.1673604342436
0.4980000000000004,1573.1673237146902
0.4990000000000004,1573.1672864153024
0.5000000000000003,1573.1672485411434
0.5010000000000003,1573.167210097236
0.5020000000000003,1573.1671710885655
0.5030000000000003,1573.167131520079
0.5040000000000003,1573.1670913966823
0.5050000000000003,1573.167050723246
0.5060000000000003,1573.1670095046031
0.5070000000000003,1573.1669677455468
0.5080000000000003,1573.1669254508347
0.5090000000000003,1573.166882625189
0.5100000000000003,1573.1668392732925
0.5110000000000003,1573.1667953997915
0.5120000000000003,1573.1667510092998
0.5130000000000003,1573.1667061063931
0.5140000000000003,1573.1666606956105
0.5150000000000003,1573.1666147814567
0.5160000000000003,1573.1665683684034
0.5170000000000003,1573.1665214608865
0.5180000000000003,1573.1664740633046
0.5190000000000003,1573.1664261800245
0.5200000000000004,1573.166377815382
0.5210000000000004,1573.1663289736741
