"Physical Time: Physical Time (s)","Surface Average Rear Temp1 Monitor: Surface Average of Temperature (K)"
0.001,1473
0.002,1473
0.003,1473.00000000001
0.004,1473.00000000004
0.005,1473.00000000016
0.006,1473.00000000061
0.007,1473.00000000199
0.008,1473.00000000581
0.009,1473.00000001535
0.01,1473.00000003723
0.011,1473.00000008387
0.012,1473.00000017715
0.013,1473.00000035351
0.014,1473.00000067076
0.015,1473.00000121671
0.016,1473.0000021196
0.017,1473.00000356027
0.018,1473.00000578583
0.019,1473.00000912429
0.02,1473.00001399987
0.021,1473.00002094826
0.022,1473.00003063135
0.023,1473.00004385066
0.024,1473.00006155914
0.025,1473.00008487058
0.026,1473.00011506649
0.027,1473.00015359999
0.028,1473.00020209646
0.029,1473.00026235124
0.03,1473.00033632412
0.031,1473.00042613078
0.032,1473.00053403166
0.033,1473.00066241831
0.034,1473.00081379768
0.035,1473.0009907748
0.036,1473.00119603411
0.037,1473.00143231995
0.038,1473.00170241653
0.039,1473.00200912782
0.04,1473.00235525839
0.041,1473.00274359168
0.042,1473.00317687354
0.043,1473.0036577939
0.044,1473.00418897032
0.045,1473.00477293271
0.046,1473.00541210958
0.047,1473.00610881575
0.048,1473.00686524152
0.049,1473.0076834434
0.05,1473.00856533639
0.051,1473.00951268758
0.052,1473.01052711136
0.053,1473.01161006579
0.054,1473.01276285038
0.055,1473.01398660493
0.056,1473.01528230957
0.057,1473.01665078571
0.058,1473.01809269796
0.059,1473.01960855676
0.06,1473.02119872185
0.061,1473.02286340837
0.062,1473.02460268512
0.063,1473.0264164858
0.064,1473.02830461224
0.065,1473.03026674027
0.066,1473.03230242561
0.067,1473.03441110996
0.068,1473.03659212721
0.069,1473.03884470973
0.07,1473.04116799465
0.071,1473.0435610302
0.0720000000000001,1473.04602278189
0.0730000000000001,1473.04855213874
0.0740000000000001,1473.05114791927
0.0750000000000001,1473.05380887741
0.0760000000000001,1473.05653370828
0.0770000000000001,1473.05932105374
0.0780000000000001,1473.06216950782
0.0790000000000001,1473.06507762191
0.0800000000000001,1473.06804390971
0.0810000000000001,1473.07106685211
0.0820000000000001,1473.07414490165
0.0830000000000001,1473.07727648699
0.0840000000000001,1473.08046001698
0.0850000000000001,1473.08369388458
0.0860000000000001,1473.08697647062
0.0870000000000001,1473.09030614725
0.0880000000000001,1473.09368128129
0.0890000000000001,1473.09710023724
0.0900000000000001,1473.10056138024
0.0910000000000001,1473.10406307877
0.0920000000000001,1473.10760370711
0.0930000000000001,1473.11118164772
0.0940000000000001,1473.11479529341
0.0950000000000001,1473.1184430493
0.0960000000000001,1473.12212333469
0.0970000000000001,1473.12583458474
0.0980000000000001,1473.129575252
0.0990000000000001,1473.13334380783
0.1,1473.13713874366
0.101,1473.14095857214
0.102,1473.14480182818
0.103,1473.14866706984
0.104,1473.15255287917
0.105,1473.15645786293
0.106,1473.16038059385
0.107,1473.16431979234
0.108,1473.16827414938
0.109,1473.17224237381
0.11,1473.17622320112
0.111,1473.18021539464
0.112,1473.18421774562
0.113,1473.18822907316
0.114,1473.19224822416
0.115,1473.19627407319
0.116,1473.20030552247
0.117,1473.20434150169
0.118,1473.20838096791
0.119,1473.21242290537
0.12,1473.21646632529
0.121,1473.22051026566
0.122,1473.22455379096
0.123,1473.22859599193
0.124,1473.23263598522
0.125,1473.2366729131
0.126,1473.24070594316
0.127,1473.24473426788
0.128,1473.24875710434
0.129,1473.25277369381
0.13,1473.25678330138
0.131,1473.26078521553
0.132,1473.26477874778
0.133,1473.26876323224
0.134,1473.27273802518
0.135,1473.27670250467
0.136,1473.28065607009
0.137,1473.28459814175
0.138,1473.28852816045
0.139,1473.29244558704
0.14,1473.29634990201
0.141,1473.30024060503
0.142,1473.30411721458
0.143,1473.30797926748
0.144,1473.3118263185
0.145,1473.31565793991
0.146,1473.31947372109
0.147,1473.32327326813
0.148,1473.32705620338
0.149,1473.33082216509
0.15,1473.33457080703
0.151,1473.33830179802
0.152,1473.34201482163
0.153,1473.34570957575
0.154,1473.34938577225
0.155,1473.35304313657
0.156,1473.35668140739
0.157,1473.36030033626
0.158,1473.36389968727
0.159,1473.36747923667
0.16,1473.37103877257
0.161,1473.37457809459
0.162,1473.37809701352
0.163,1473.38159535106
0.164,1473.38507293943
0.165,1473.38852962114
0.166,1473.39196524863
0.167,1473.395379684
0.168,1473.39877279876
0.169,1473.40214447348
0.17,1473.4054945976
0.171,1473.40882306907
0.172,1473.41212979416
0.173,1473.41541468721
0.174,1473.41867767029
0.175,1473.42191867308
0.176,1473.42513763254
0.177,1473.42833449272
0.178,1473.43150920453
0.179,1473.4346617255
0.18,1473.43779201961
0.181,1473.44090005702
0.182,1473.44398581391
0.183,1473.44704927228
0.184,1473.45009041972
0.185,1473.45310924926
0.186,1473.45610575918
0.187,1473.4590799528
0.188,1473.46203183836
0.189,1473.46496142878
0.19,1473.46786874157
0.191,1473.4707537986
0.192,1473.47361662601
0.193,1473.47645725399
0.194,1473.4792757167
0.195,1473.48207205207
0.196,1473.48484630168
0.197,1473.48759851064
0.198,1473.49032872745
0.199,1473.49303700383
0.2,1473.49572339468
0.201,1473.49838795786
0.202,1473.50103075417
0.203,1473.50365184714
0.204,1473.506251303
0.205,1473.50882919052
0.206,1473.51138558093
0.207,1473.5139205478
0.208,1473.51643416696
0.209,1473.5189265164
0.21,1473.52139767616
0.211,1473.52384772826
0.212,1473.5262767566
0.213,1473.52868484687
0.214,1473.53107208651
0.215,1473.53343856455
0.216,1473.53578437161
0.217,1473.53810959978
0.218,1473.54041434257
0.219,1473.54269869481
0.22,1473.54496275262
0.221,1473.54720661331
0.222,1473.54943037534
0.223,1473.55163413825
0.224,1473.55381800256
0.225,1473.55598180574
0.226,1473.55812593575
0.227,1473.5602505162
0.228,1473.56235564336
0.229,1473.56444141318
0.23,1473.56650792459
0.231,1473.56855527914
0.232,1473.57058358039
0.233,1473.57259293338
0.234,1473.57458344429
0.235,1473.57655522017
0.236,1473.5785083688
0.237,1473.58044299855
0.238,1473.58235921827
0.239,1473.58425713723
0.24,1473.58613686504
0.241,1473.58799851163
0.242,1473.58984218717
0.243,1473.59166800202
0.244,1473.59347606673
0.245,1473.595266492
0.246,1473.59703938859
0.247,1473.59879486738
0.248,1473.60053303924
0.249,1473.60225401509
0.25,1473.60395790583
0.251,1473.6056448223
0.252,1473.6073148753
0.253,1473.60896817552
0.254,1473.61060483356
0.255,1473.61222495988
0.256,1473.61382866478
0.257,1473.6154160584
0.258,1473.61698725069
0.259,1473.61854235137
0.26,1473.62008146996
0.261,1473.62160471572
0.262,1473.62311219765
0.263,1473.62460402447
0.264,1473.62608030463
0.265,1473.62754114626
0.266,1473.62898665718
0.267,1473.63041694485
0.268,1473.63183211644
0.269,1473.63323227871
0.27,1473.63461753808
0.271,1473.6359880006
0.272,1473.6373437719
0.273,1473.63868495725
0.274,1473.64001166147
0.275,1473.641323989
0.276,1473.64262204383
0.277,1473.64390592953
0.278,1473.64517574921
0.279,1473.64643160555
0.28,1473.64767360076
0.281,1473.64890183659
0.282,1473.65011641432
0.283,1473.65131743476
0.284,1473.65250499821
0.285,1473.65367920453
0.286,1473.65484015305
0.287,1473.6559879426
0.288,1473.65712267154
0.289,1473.6582444377
0.29,1473.6593533384
0.291,1473.66044947046
0.292,1473.66153293016
0.293,1473.66260381328
0.294,1473.66366221507
0.295,1473.66470823025
0.296,1473.66574195301
0.297,1473.66676347701
0.298,1473.66777289539
0.299,1473.66877030072
0.3,1473.66975578508
0.301,1473.67072943996
0.302,1473.67169135635
0.303,1473.67264162468
0.304,1473.67358033484
0.305,1473.67450757619
0.306,1473.67542343752
0.307,1473.67632800708
0.308,1473.6772213726
0.309,1473.67810362125
0.31,1473.67897483964
0.311,1473.67983511384
0.312,1473.6806845294
0.313,1473.6815231713
0.314,1473.68235112397
0.315,1473.68316847131
0.316,1473.68397529667
0.317,1473.68477168286
0.318,1473.68555771215
0.319,1473.68633346626
0.32,1473.68709902636
0.321,1473.68785447311
0.322,1473.6885998866
0.323,1473.6893353464
0.324,1473.69006093155
0.325,1473.69077672052
0.326,1473.6914827913
0.327,1473.6921792213
0.328,1473.69286608742
0.329,1473.69354346603
0.33,1473.69421143298
0.331,1473.69487006358
0.332,1473.69551943262
0.333,1473.69615961438
0.334,1473.6967906826
0.335,1473.69741271053
0.336,1473.69802577087
0.337,1473.69862993584
0.338,1473.69922527712
0.339,1473.69981186589
0.34,1473.70038977284
0.341,1473.70095906813
0.342,1473.70151982142
0.343,1473.70207210189
0.344,1473.7026159782
0.345,1473.70315151852
0.346,1473.70367879053
0.347,1473.70419786142
0.348,1473.70470879787
0.349,1473.70521166612
0.35,1473.70570653187
0.351,1473.70619346038
0.352,1473.70667251641
0.353,1473.70714376426
0.354,1473.70760726773
0.355,1473.70806309018
0.356,1473.70851129447
0.357,1473.70895194302
0.358,1473.70938509778
0.359,1473.70981082022
0.36,1473.71022917138
0.361,1473.71064021183
0.362,1473.71104400168
0.363,1473.7114406006
0.364,1473.71183006782
0.365,1473.71221246209
0.366,1473.71258784177
0.367,1473.71295626473
0.368,1473.71331778843
0.369,1473.71367246989
0.37,1473.71402036571
0.371,1473.71436153204
0.372,1473.71469602461
0.373,1473.71502389873
0.374,1473.71534520929
0.375,1473.71566001076
0.376,1473.7159683572
0.377,1473.71627030224
0.378,1473.71656589912
0.379,1473.71685520066
0.38,1473.71713825927
0.381,1473.71741512697
0.382,1473.71768585538
0.383,1473.71795049572
0.384,1473.71820909881
0.385,1473.71846171508
0.386,1473.71870839457
0.387,1473.71894918695
0.388,1473.71918414148
0.389,1473.71941330707
0.39,1473.71963673221
0.391,1473.71985446505
0.392,1473.72006655335
0.393,1473.7202730445
0.394,1473.72047398554
0.395,1473.72066942311
0.396,1473.72085940351
0.397,1473.72104397267
0.398,1473.72122317618
0.399,1473.72139705926
0.4,1473.72156566677
0.401,1473.72172904322
0.402,1473.7218872328
0.403,1473.72204011018
0.404,1473.72218790365
0.405,1473.72233066547
0.406,1473.72246843426
0.407,1473.7226012478
0.408,1473.72272914465
0.409,1473.72285216408
0.41,1473.72297034575
0.411,1473.72308372954
0.412,1473.72319235531
0.413,1473.72329626285
0.414,1473.72339549178
0.415,1473.72349008154
0.416,1473.72358007133
0.417,1473.72366550009
0.418,1473.72374640651
0.419,1473.72382282899
0.42,1473.72389480567
0.421,1473.72396237441
0.422,1473.72402557277
0.423,1473.72408443805
0.424,1473.72413900725
0.425,1473.72418931709
0.426,1473.72423540401
0.427,1473.72427730416
0.428,1473.72431505343
0.429,1473.7243486874
0.43,1473.72437824141
0.431,1473.72440375049
0.432,1473.7244252494
0.433,1473.72444277265
0.434,1473.72445635447
0.435,1473.72446602879
0.436,1473.72447182932
0.437,1473.72447378947
0.438,1473.7244719424
0.439,1473.724466321
0.44,1473.72445695791
0.441,1473.7244438855
0.442,1473.7244271359
0.443,1473.72440674097
0.444,1473.72438273231
0.445,1473.72435514129
0.446,1473.72432399902
0.447,1473.72428933637
0.448,1473.72425118394
0.449,1473.72420957212
0.45,1473.72416453104
0.451,1473.72411609059
0.452,1473.72406428041
0.453,1473.72400912994
0.454,1473.72395066835
0.455,1473.72388892459
0.456,1473.72382392738
0.457,1473.72375570521
0.458,1473.72368428634
0.459,1473.7236096988
0.46,1473.72353197041
0.461,1473.72345112875
0.462,1473.72336720118
0.463,1473.72328021487
0.464,1473.72319019674
0.465,1473.72309717351
0.466,1473.72300117167
0.467,1473.72290221751
0.468,1473.72280033712
0.469,1473.72269555636
0.47,1473.7225879009
0.471,1473.72247739617
0.472,1473.72236406746
0.473,1473.72224793978
0.474,1473.722129038
0.475,1473.72200738676
0.476,1473.72188301052
0.477,1473.72175593351
0.478,1473.72162617981
0.479,1473.72149377328
0.48,1473.72135873758
0.481,1473.7212210962
0.482,1473.72108087244
0.483,1473.7209380894
0.484,1473.72079276999
0.485,1473.72064493696
0.486,1473.72049461286
0.487,1473.72034182006
0.488,1473.72018658074
0.489,1473.72002891692
0.49,1473.71986885043
0.491,1473.71970640294
0.492,1473.71954159592
0.493,1473.71937445068
0.494,1473.71920498837
0.495,1473.71903322995
0.496,1473.71885919622
0.497,1473.71868290781
0.498,1473.71850438519
0.499,1473.71832364865
0.5,1473.71814071833
0.501,1473.7179556142
0.502,1473.71776835608
0.503,1473.71757896361
0.504,1473.7173874563
0.505,1473.71719385347
0.506,1473.7169981743
0.507,1473.71680043781
0.508,1473.71660066289
0.509,1473.71639886824
0.51,1473.71619507243
0.511,1473.71598929388
0.512,1473.71578155086
0.513,1473.71557186148
0.514,1473.71536024371
0.515,1473.7151467154
0.516,1473.71493129421
0.517,1473.71471399769
0.518,1473.71449484324
0.519,1473.71427384811
0.52,1473.71405102942
0.521,1473.71382640416
0.522,1473.71359998915
0.523,1473.71337180112
0.524,1473.71314185662
0.525,1473.71291017209
0.526,1473.71267676384
0.527,1473.71244164803
0.528,1473.71220484071
0.529,1473.71196635779
0.53,1473.71172621503
0.531,1473.7114844281
0.532,1473.71124101252
0.533,1473.71099598369
0.534,1473.71074935689
0.535,1473.71050114726
0.536,1473.71025136983
0.537,1473.71000003951
0.538,1473.70974717108
0.539,1473.70949277921
0.54,1473.70923687844
0.541,1473.7089794832
0.542,1473.7087206078
0.543,1473.70846026644
0.544,1473.70819847319
0.545,1473.70793524201
0.546,1473.70767058677
0.547,1473.70740452119
0.548,1473.7071370589
0.549,1473.70686821342
0.55,1473.70659799816
0.551,1473.70632642641
0.552,1473.70605351136
0.553,1473.70577926609
0.554,1473.70550370358
0.555,1473.7052268367
0.556,1473.70494867821
0.557,1473.70466924078
0.558,1473.70438853695
0.559,1473.7041065792
0.56,1473.70382337987
0.561,1473.70353895122
0.562,1473.70325330539
0.563,1473.70296645446
0.564,1473.70267841036
0.565,1473.70238918497
0.566,1473.70209879005
0.567,1473.70180723726
0.568,1473.70151453817
0.569,1473.70122070427
0.57,1473.70092574694
0.571,1473.70062967746
0.572,1473.70033250705
0.573,1473.7000342468
0.574,1473.69973490773
0.575,1473.69943450078
0.576,1473.69913303678
0.577,1473.69883052648
0.578,1473.69852698054
0.579,1473.69822240954
0.58,1473.69791682396
0.581,1473.69761023422
0.582,1473.69730265063
0.583,1473.69699408341
0.584,1473.69668454274
0.585,1473.69637403866
0.586,1473.69606258118
0.587,1473.69575018018
0.588,1473.6954368455
0.589,1473.69512258687
0.59,1473.69480741396
0.591,1473.69449133636
0.592,1473.69417436357
0.593,1473.69385650501
0.594,1473.69353777004
0.595,1473.69321816794
0.596,1473.69289770789
0.597,1473.69257639903
0.598,1473.6922542504
0.599,1473.69193127098
0.6,1473.69160746966
0.601,1473.69128285528
0.602,1473.69095743659
0.603,1473.69063122228
0.604,1473.69030422096
0.605,1473.68997644117
0.606,1473.68964789138
0.607,1473.68931858
0.608,1473.68898851535
0.609,1473.68865770572
0.61,1473.68832615929
0.611,1473.68799388418
0.612,1473.68766088848
0.613,1473.68732718018
0.614,1473.6869927672
0.615,1473.68665765742
0.616,1473.68632185864
0.617,1473.68598537859
0.618,1473.68564822495
0.619,1473.68531040534
0.62,1473.6849719273
0.621,1473.68463279831
0.622,1473.68429302581
0.623,1473.68395261717
0.624,1473.68361157967
0.625,1473.68326992057
0.626,1473.68292764706
0.627,1473.68258476625
0.628,1473.68224128522
0.629,1473.68189721097
0.63,1473.68155255046
0.631,1473.68120731057
0.632,1473.68086149815
0.633,1473.68051511998
0.634,1473.68016818277
0.635,1473.67982069321
0.636,1473.6794726579
0.637,1473.6791240834
0.638,1473.67877497623
0.639,1473.67842534282
0.64,1473.67807518959
0.641,1473.67772452288
0.642,1473.67737334897
0.643,1473.67702167412
0.644,1473.67666950451
0.645,1473.67631684629
0.646,1473.67596370554
0.647,1473.6756100883
0.648,1473.67525600055
0.649,1473.67490144825
0.65,1473.67454643727
0.651,1473.67419097346
0.652,1473.67383506261
0.653,1473.67347871047
0.654,1473.67312192273
0.655,1473.67276470505
0.656,1473.67240706302
0.657,1473.67204900221
0.658,1473.67169052812
0.659,1473.67133164622
0.66,1473.67097236194
0.661,1473.67061268064
0.662,1473.67025260766
0.663,1473.66989214829
0.664,1473.66953130776
0.665,1473.66917009128
0.666,1473.668808504
0.667,1473.66844655103
0.668,1473.66808423746
0.669,1473.6677215683
0.67,1473.66735854853
0.671,1473.66699518312
0.672,1473.66663147696
0.673,1473.66626743491
0.674,1473.66590306181
0.675,1473.66553836242
0.676,1473.66517334151
0.677,1473.66480800376
0.678,1473.66444235385
0.679,1473.6640763964
0.68,1473.66371013599
0.681,1473.66334357718
0.682,1473.66297672448
0.683000000000001,1473.66260958236
0.684000000000001,1473.66224215526
0.685000000000001,1473.66187444758
0.686000000000001,1473.66150646368
0.687000000000001,1473.66113820789
0.688000000000001,1473.66076968449
0.689000000000001,1473.66040089774
0.690000000000001,1473.66003185187
0.691000000000001,1473.65966255104
0.692000000000001,1473.65929299943
0.693000000000001,1473.65892320112
0.694000000000001,1473.65855316022
0.695000000000001,1473.65818288075
0.696000000000001,1473.65781236674
0.697000000000001,1473.65744162216
0.698000000000001,1473.65707065095
0.699000000000001,1473.65669945704
0.700000000000001,1473.65632804428
0.701000000000001,1473.65595641654
0.702000000000001,1473.65558457763
0.703000000000001,1473.65521253133
0.704000000000001,1473.65484028139
0.705000000000001,1473.65446783152
0.706000000000001,1473.65409518542
0.707000000000001,1473.65372234674
0.708000000000001,1473.65334931912
0.709000000000001,1473.65297610613
0.710000000000001,1473.65260271136
0.711000000000001,1473.65222913833
0.712000000000001,1473.65185539055
0.713000000000001,1473.6514814715
0.714000000000001,1473.65110738463
0.715000000000001,1473.65073313334
0.716000000000001,1473.65035872104
0.717000000000001,1473.64998415107
0.718000000000001,1473.64960942679
0.719000000000001,1473.64923455147
0.720000000000001,1473.64885952841
0.721000000000001,1473.64848436086
0.722000000000001,1473.64810905203
0.723000000000001,1473.64773360511
0.724000000000001,1473.64735802328
0.725000000000001,1473.64698230967
0.726000000000001,1473.6466064674
0.727000000000001,1473.64623049955
0.728000000000001,1473.64585440919
0.729000000000001,1473.64547819936
0.730000000000001,1473.64510187305
0.731000000000001,1473.64472543325
0.732000000000001,1473.64434888293
0.733000000000001,1473.64397222502
0.734000000000001,1473.64359546242
0.735000000000001,1473.64321859802
0.736000000000001,1473.64284163469
0.737000000000001,1473.64246457524
0.738000000000001,1473.6420874225
0.739000000000001,1473.64171017925
0.740000000000001,1473.64133284826
0.741000000000001,1473.64095543227
0.742000000000001,1473.64057793398
0.743000000000001,1473.64020035611
0.744000000000001,1473.6398227013
0.745000000000001,1473.63944497223
0.746000000000001,1473.6390671715
0.747000000000001,1473.63868930173
0.748000000000001,1473.63831136549
0.749000000000001,1473.63793336534
0.750000000000001,1473.63755530382
0.751000000000001,1473.63717718344
0.752000000000001,1473.6367990067
0.753000000000001,1473.63642077606
0.754000000000001,1473.63604249399
0.755000000000001,1473.6356641629
0.756000000000001,1473.63528578522
0.757000000000001,1473.63490736332
0.758000000000001,1473.63452889958
0.759000000000001,1473.63415039633
0.760000000000001,1473.63377185592
0.761000000000001,1473.63339328065
0.762000000000001,1473.6330146728
0.763000000000001,1473.63263603464
0.764000000000001,1473.63225736843
0.765000000000001,1473.63187867638
0.766000000000001,1473.63149996072
0.767000000000001,1473.63112122363
0.768000000000001,1473.63074246728
0.769000000000001,1473.63036369382
0.770000000000001,1473.6299849054
0.771000000000001,1473.62960610413
0.772000000000001,1473.6292272921
0.773000000000001,1473.62884847139
0.774000000000001,1473.62846964407
0.775000000000001,1473.62809081217
0.776000000000001,1473.62771197774
0.777000000000001,1473.62733314276
0.778000000000001,1473.62695430925
0.779000000000001,1473.62657547916
0.780000000000001,1473.62619665446
0.781000000000001,1473.62581783708
0.782000000000001,1473.62543902895
0.783000000000001,1473.62506023198
0.784000000000001,1473.62468144805
0.785000000000001,1473.62430267903
0.786000000000001,1473.6239239268
0.787000000000001,1473.62354519317
0.788000000000001,1473.62316647998
0.789000000000001,1473.62278778904
0.790000000000001,1473.62240912213
0.791000000000001,1473.62203048105
0.792000000000001,1473.62165186754
0.793000000000001,1473.62127328335
0.794000000000001,1473.62089473022
0.795000000000001,1473.62051620985
0.796000000000001,1473.62013772396
0.797000000000001,1473.61975927422
