"Physical Time: Physical Time (s)","Surface Average Rear Temp1 Monitor: Surface Average of Temperature (K)"
0.001,1473
0.002,1473
0.003,1473
0.004,1473.00000000002
0.005,1473.00000000012
0.006,1473.00000000047
0.007,1473.00000000157
0.008,1473.00000000469
0.009,1473.00000001261
0.01,1473.00000003108
0.011,1473.00000007105
0.012,1473.00000015208
0.013,1473.00000030721
0.014,1473.00000058946
0.015,1473.00000108026
0.016,1473.00000189967
0.017,1473.00000321851
0.018,1473.00000527201
0.019,1473.00000837468
0.02,1473.00001293588
0.021,1473.00001947557
0.022,1473.00002863957
0.023,1473.00004121365
0.024,1473.000058136
0.025,1473.00008050744
0.026,1473.00010959898
0.027,1473.00014685632
0.028,1473.00019390136
0.029,1473.00025253009
0.03,1473.00032470764
0.031,1473.00041256004
0.032,1473.00051836321
0.033,1473.00064452939
0.034,1473.00079359138
0.035,1473.00096818501
0.036,1473.00117103027
0.037,1473.00140491145
0.038,1473.00167265672
0.039,1473.0019771176
0.04,1473.00232114853
0.041,1473.00270758694
0.042,1473.0031392342
0.043,1473.00361883922
0.044,1473.00414907625
0.045,1473.004732534
0.046,1473.00537170021
0.047,1473.00606894888
0.048,1473.0068265291
0.049,1473.00764655538
0.05,1473.00853099961
0.051,1473.00948168448
0.052,1473.01050027835
0.053,1473.01158829154
0.054,1473.01274707389
0.055,1473.01397781352
0.056,1473.0152815367
0.057,1473.01665910879
0.058,1473.01811123608
0.059,1473.01963846841
0.06,1473.02124120257
0.061,1473.02291968635
0.062,1473.0246740231
0.063,1473.02650417676
0.064,1473.02840997727
0.065,1473.03039112637
0.066,1473.03244720349
0.067,1473.03457768021
0.068,1473.03678190288
0.069,1473.03905912003
0.07,1473.04140848415
0.071,1473.04382905748
0.0720000000000001,1473.04631981797
0.0730000000000001,1473.04887966542
0.0740000000000001,1473.05150742757
0.0750000000000001,1473.05420186604
0.0760000000000001,1473.05696168218
0.0770000000000001,1473.0597855227
0.0780000000000001,1473.06267198517
0.0790000000000001,1473.06561962327
0.0800000000000001,1473.06862695182
0.0810000000000001,1473.07169245169
0.0820000000000001,1473.07481457438
0.0830000000000001,1473.07799174647
0.0840000000000001,1473.0812223738
0.0850000000000001,1473.08450484544
0.0860000000000001,1473.08783753747
0.0870000000000001,1473.09121881649
0.0880000000000001,1473.09464704302
0.0890000000000001,1473.09812057459
0.0900000000000001,1473.10163776866
0.0910000000000001,1473.10519698543
0.0920000000000001,1473.10879659029
0.0930000000000001,1473.11243495631
0.0940000000000001,1473.11611046631
0.0950000000000001,1473.11982151504
0.0960000000000001,1473.1235665109
0.0970000000000001,1473.12734387775
0.0980000000000001,1473.13115205646
0.0990000000000001,1473.13498950633
0.1,1473.1388547064
0.101,1473.14274615659
0.102,1473.14666237881
0.103,1473.15060191785
0.104,1473.15456334223
0.105,1473.15854524495
0.106,1473.16254624408
0.107,1473.16656498337
0.108,1473.17060013268
0.109,1473.17465038837
0.11,1473.17871447364
0.111,1473.18279113875
0.112,1473.18687916121
0.113,1473.19097734592
0.114,1473.19508452523
0.115,1473.19919955896
0.116,1473.20332133438
0.117,1473.20744876613
0.118,1473.21158075332
0.119,1473.21571631875
0.12,1473.21985445318
0.121,1473.22399417702
0.122,1473.22813453821
0.123,1473.23227461141
0.124,1473.23641349749
0.125,1473.24055032315
0.126,1473.24468424048
0.127,1473.24881442662
0.128,1473.25294008339
0.129,1473.25706043685
0.13,1473.26117473695
0.131,1473.26528225716
0.132,1473.269382294
0.133,1473.2734741667
0.134,1473.27755721671
0.135,1473.28163080736
0.136,1473.28569432339
0.137,1473.28974717056
0.138,1473.2937887752
0.139,1473.29781858378
0.14,1473.30183606253
0.141,1473.30584069695
0.142,1473.30983199146
0.143,1473.31380946891
0.144,1473.31777267022
0.145,1473.32172115393
0.146,1473.3256544958
0.147,1473.3295722884
0.148,1473.33347414068
0.149,1473.33735967766
0.15,1473.3412285399
0.151,1473.34508038322
0.152,1473.34891487829
0.153,1473.35273171021
0.154,1473.35653057817
0.155,1473.3603111951
0.156,1473.36407328727
0.157,1473.36781659396
0.158,1473.3715408671
0.159,1473.37524587092
0.16,1473.37893138163
0.161,1473.3825971871
0.162,1473.38624308649
0.163,1473.38986888999
0.164,1473.39347441844
0.165,1473.39705950312
0.166,1473.40062398534
0.167,1473.40416771623
0.168,1473.40769055644
0.169,1473.41119237582
0.17,1473.4146730532
0.171,1473.41813247607
0.172,1473.42157054037
0.173,1473.4249871502
0.174,1473.42838221758
0.175,1473.4317556622
0.176,1473.43510741119
0.177,1473.43843739892
0.178,1473.44174556669
0.179,1473.44503186259
0.18,1473.44829624124
0.181,1473.4515386636
0.182,1473.45475909678
0.183,1473.45795751377
0.184,1473.46113389333
0.185,1473.46428821977
0.186,1473.46742048273
0.187,1473.47053067706
0.188,1473.4736188026
0.189,1473.47668486402
0.19,1473.47972887067
0.191,1473.48275083639
0.192,1473.4857507794
0.193,1473.48872872207
0.194,1473.49168469087
0.195,1473.49461871613
0.196,1473.49753083195
0.197,1473.50042107606
0.198,1473.5032894897
0.199,1473.50613611742
0.2,1473.50896100706
0.201,1473.51176420954
0.202,1473.51454577877
0.203,1473.51730577156
0.204,1473.52004424748
0.205,1473.52276126874
0.206,1473.52545690012
0.207,1473.52813120884
0.208,1473.53078426445
0.209,1473.53341613878
0.21,1473.5360269058
0.211,1473.53861664154
0.212,1473.54118542402
0.213,1473.54373333314
0.214,1473.54626045059
0.215,1473.54876685982
0.216,1473.5512526459
0.217,1473.55371789547
0.218,1473.55616269669
0.219,1473.5585871391
0.22,1473.56099131362
0.221,1473.56337531247
0.222,1473.56573922906
0.223,1473.56808315799
0.224,1473.5704071949
0.225,1473.57271143654
0.226,1473.57499598058
0.227,1473.57726092563
0.228,1473.57950637118
0.229,1473.58173241753
0.23,1473.58393916572
0.231,1473.58612671753
0.232,1473.58829517541
0.233,1473.59044464242
0.234,1473.59257522219
0.235,1473.59468701891
0.236,1473.59678013722
0.237,1473.59885468226
0.238,1473.60091075953
0.239,1473.60294847496
0.24,1473.60496793477
0.241,1473.60696924548
0.242,1473.60895251393
0.243,1473.61091784715
0.244,1473.61286514568
0.245,1473.61479476586
0.246,1473.61670680026
0.247,1473.61860134925
0.248,1473.62047851557
0.249,1473.62233840346
0.25,1473.62418111817
0.251,1473.6260067657
0.252,1473.62781545255
0.253,1473.62960728553
0.254,1473.63138237165
0.255,1473.63314081801
0.256,1473.63488273174
0.257,1473.63660821991
0.258,1473.63831738956
0.259,1473.64001034758
0.26,1473.64168720072
0.261,1473.64334805557
0.262,1473.64499301853
0.263,1473.64662219579
0.264,1473.6482356933
0.265,1473.64983361674
0.266,1473.65141607158
0.267,1473.65298316296
0.268,1473.65453499574
0.269,1473.65607167448
0.27,1473.65759330339
0.271,1473.6590999864
0.272,1473.66059182704
0.273,1473.66206892852
0.274,1473.66353139366
0.275,1473.66497932493
0.276,1473.66641282437
0.277,1473.66783199368
0.278,1473.66923693411
0.279,1473.67062774653
0.28,1473.67200453137
0.281,1473.67336738865
0.282,1473.67471641793
0.283,1473.67605171837
0.284,1473.67737338865
0.285,1473.678681527
0.286,1473.6799762312
0.287,1473.68125759856
0.288,1473.68252572595
0.289,1473.6837807097
0.29,1473.68502264574
0.291,1473.68625162946
0.292,1473.68746775579
0.293,1473.68867111916
0.294,1473.68986181351
0.295,1473.69103993229
0.296,1473.69220556843
0.297,1473.69335881438
0.298,1473.69449976207
0.299,1473.69562850293
0.3,1473.69674512787
0.301,1473.69784972731
0.302,1473.69894239113
0.303,1473.7000232087
0.304,1473.70109226889
0.305,1473.70214966004
0.306,1473.70319546997
0.307,1473.70422978598
0.308,1473.70525269485
0.309,1473.70626428285
0.31,1473.70726463571
0.311,1473.70825383865
0.312,1473.70923197634
0.313,1473.71019913298
0.314,1473.71115539221
0.315,1473.71210083713
0.316,1473.71303555037
0.317,1473.713959614
0.318,1473.71487310956
0.319,1473.71577611811
0.32,1473.71666872014
0.321,1473.71755099567
0.322,1473.71842302416
0.323,1473.71928488458
0.324,1473.72013665535
0.325,1473.72097841441
0.326,1473.72181023916
0.327,1473.72263220651
0.328,1473.72344439282
0.329,1473.72424687397
0.33,1473.72503972533
0.331,1473.72582302175
0.332,1473.72659683757
0.333,1473.72736124663
0.334,1473.72811632228
0.335,1473.72886213734
0.336,1473.72959876414
0.337,1473.73032627454
0.338,1473.73104473987
0.339,1473.73175423097
0.34,1473.7324548182
0.341,1473.73314657141
0.342,1473.73382955999
0.343,1473.73450385283
0.344,1473.73516951831
0.345,1473.73582662438
0.346,1473.73647523845
0.347,1473.7371154275
0.348,1473.73774725801
0.349,1473.73837079601
0.35,1473.73898610702
0.351,1473.73959325612
0.352,1473.74019230791
0.353,1473.74078332654
0.354,1473.74136637569
0.355,1473.74194151856
0.356,1473.74250881793
0.357,1473.7430683361
0.358,1473.74362013493
0.359,1473.74416427582
0.36,1473.74470081973
0.361,1473.74522982718
0.362,1473.74575135821
0.363,1473.74626547247
0.364,1473.74677222916
0.365,1473.74727168701
0.366,1473.74776390435
0.367,1473.74824893909
0.368,1473.74872684868
0.369,1473.74919769015
0.37,1473.74966152013
0.371,1473.75011839483
0.372,1473.75056837
0.373,1473.75101150102
0.374,1473.75144784283
0.375,1473.75187744999
0.376,1473.75230037662
0.377,1473.75271667645
0.378,1473.75312640281
0.379,1473.75352960862
0.38,1473.75392634641
0.381,1473.75431666832
0.382,1473.75470062609
0.383,1473.75507827107
0.384,1473.75544965421
0.385,1473.75581482612
0.386,1473.75617383697
0.387,1473.75652673659
0.388,1473.75687357443
0.389,1473.75721439953
0.39,1473.75754926061
0.391,1473.75787820598
0.392,1473.75820128359
0.393,1473.75851854105
0.394,1473.75883002558
0.395,1473.75913578404
0.396,1473.75943586296
0.397,1473.75973030847
0.398,1473.76001916641
0.399,1473.7603024822
0.4,1473.76058030097
0.401,1473.76085266747
0.402,1473.76111962612
0.403,1473.76138122099
0.404,1473.76163749583
0.405,1473.76188849403
0.406,1473.76213425868
0.407,1473.7623748325
0.408,1473.76261025791
0.409,1473.76284057698
0.41,1473.76306583148
0.411,1473.76328606285
0.412,1473.7635013122
0.413,1473.76371162033
0.414,1473.76391702773
0.415,1473.76411757456
0.416,1473.7643133007
0.417,1473.76450424569
0.418,1473.76469044878
0.419,1473.76487194892
0.42,1473.76504878475
0.421,1473.7652209946
0.422,1473.76538861653
0.423,1473.76555151422
0.424,1473.76571010136
0.425,1473.76586403624
0.426,1473.76601355787
0.427,1473.76615869458
0.428,1473.76629947893
0.429,1473.76643594428
0.43,1473.76656812433
0.431,1473.76669605301
0.432,1473.76681976438
0.433,1473.76693929249
0.434,1473.76705467136
0.435,1473.76716593486
0.436,1473.76727311671
0.437,1473.76737625044
0.438,1473.76747536937
0.439,1473.7675705066
0.44,1473.76766169502
0.441,1473.76774896728
0.442,1473.76783235577
0.443,1473.76791189267
0.444,1473.76798760989
0.445,1473.76805953916
0.446,1473.7681277119
0.447,1473.76819215933
0.448,1473.76825291242
0.449,1473.7683100019
0.45,1473.76836345829
0.451,1473.76841331182
0.452,1473.76845959254
0.453,1473.76850233023
0.454,1473.76854155447
0.455,1473.76857729458
0.456,1473.76860957967
0.457,1473.76863843862
0.458,1473.76866390009
0.459,1473.76868599251
0.46,1473.76870474407
0.461,1473.76872018278
0.462,1473.76873233639
0.463,1473.76874123247
0.464,1473.76874689834
0.465,1473.76874936114
0.466,1473.76874864776
0.467,1473.76874478492
0.468,1473.76873779908
0.469,1473.76872771655
0.47,1473.76871456339
0.471,1473.76869836547
0.472,1473.76867914845
0.473,1473.76865693782
0.474,1473.76863175883
0.475,1473.76860363654
0.476,1473.76857259583
0.477,1473.76853866137
0.478,1473.76850185764
0.479,1473.76846220892
0.48,1473.76841973932
0.481,1473.76837447274
0.482,1473.76832643289
0.483,1473.76827564331
0.484,1473.76822212734
0.485,1473.76816590815
0.486,1473.76810700871
0.487,1473.76804545182
0.488,1473.7679812601
0.489,1473.76791445599
0.49,1473.76784506175
0.491,1473.76777309946
0.492,1473.76769859104
0.493,1473.76762155824
0.494,1473.76754202261
0.495,1473.76746000555
0.496,1473.76737552829
0.497,1473.7672886119
0.498,1473.76719927726
0.499,1473.76710754511
0.5,1473.76701343601
0.501,1473.76691697036
0.502,1473.76681816841
0.503,1473.76671705024
0.504,1473.76661363576
0.505,1473.76650794475
0.506,1473.76639999681
0.507,1473.76628981139
0.508,1473.7661774078
0.509,1473.76606280519
0.51,1473.76594602253
0.511,1473.76582707869
0.512,1473.76570599235
0.513,1473.76558278208
0.514,1473.76545746625
0.515,1473.76533006314
0.516,1473.76520059084
0.517,1473.76506906733
0.518,1473.76493551044
0.519,1473.76479993783
0.52,1473.76466236707
0.521,1473.76452281554
0.522,1473.76438130053
0.523,1473.76423783915
0.524,1473.7640924484
0.525,1473.76394514514
0.526,1473.76379594609
0.527,1473.76364486785
0.528,1473.76349192688
0.529,1473.76333713949
0.53,1473.76318052191
0.531,1473.76302209019
0.532,1473.76286186029
0.533,1473.76269984802
0.534,1473.76253606907
0.535,1473.76237053901
0.536,1473.76220327329
0.537,1473.76203428722
0.538,1473.76186359601
0.539,1473.76169121474
0.54,1473.76151715836
0.541,1473.76134144171
0.542,1473.76116407953
0.543,1473.7609850864
0.544,1473.76080447683
0.545,1473.76062226519
0.546,1473.76043846574
0.547,1473.76025309262
0.548,1473.76006615988
0.549,1473.75987768142
0.55,1473.75968767108
0.551,1473.75949614254
0.552,1473.75930310941
0.553,1473.75910858515
0.554,1473.75891258317
0.555,1473.75871511672
0.556,1473.75851619899
0.557,1473.75831584301
0.558,1473.75811406176
0.559,1473.75791086808
0.56,1473.75770627474
0.561,1473.75750029437
0.562,1473.75729293954
0.563,1473.7570842227
0.564,1473.75687415618
0.565,1473.75666275225
0.566,1473.75645002306
0.567,1473.75623598068
0.568,1473.75602063705
0.569,1473.75580400406
0.57,1473.75558609347
0.571,1473.75536691696
0.572,1473.75514648611
0.573,1473.75492481243
0.574,1473.75470190732
0.575,1473.75447778208
0.576,1473.75425244793
0.577,1473.75402591603
0.578,1473.75379819738
0.579,1473.75356930297
0.58,1473.75333924365
0.581,1473.7531080302
0.582,1473.75287567333
0.583,1473.75264218363
0.584,1473.75240757165
0.585,1473.75217184781
0.586,1473.75193502248
0.587,1473.75169710593
0.588,1473.75145810835
0.589,1473.75121803986
0.59,1473.7509769105
0.591,1473.75073473019
0.592,1473.75049150884
0.593,1473.75024725622
0.594,1473.75000198205
0.595,1473.74975569597
0.596,1473.74950840754
0.597,1473.74926012623
0.598,1473.74901086148
0.599,1473.74876062261
0.6,1473.74850941886
0.601,1473.74825725943
0.602,1473.74800415344
0.603,1473.74775010992
0.604,1473.74749513783
0.605,1473.74723924608
0.606,1473.74698244348
0.607,1473.7467247388
0.608,1473.7464661407
0.609,1473.74620665781
0.61,1473.74594629868
0.611,1473.74568507178
0.612,1473.74542298551
0.613,1473.74516004822
0.614,1473.74489626819
0.615,1473.74463165363
0.616,1473.74436621267
0.617,1473.7440999534
0.618,1473.74383288382
0.619,1473.7435650119
0.62,1473.74329634551
0.621,1473.74302689248
0.622,1473.74275666057
0.623,1473.74248565747
0.624,1473.74221389083
0.625,1473.74194136821
0.626,1473.74166809713
0.627,1473.74139408506
0.628,1473.74111933937
0.629,1473.74084386741
0.63,1473.74056767645
0.631,1473.74029077371
0.632,1473.74001316636
0.633,1473.73973486149
0.634,1473.73945586615
0.635,1473.73917618733
0.636,1473.73889583197
0.637,1473.73861480694
0.638,1473.73833311907
0.639,1473.73805077512
0.64,1473.7377677818
0.641,1473.73748414579
0.642,1473.73719987368
0.643,1473.73691497203
0.644,1473.73662944734
0.645,1473.73634330606
0.646,1473.73605655458
0.647,1473.73576919926
0.648,1473.73548124637
0.649,1473.73519270219
0.65,1473.73490357288
0.651,1473.7346138646
0.652,1473.73432358345
0.653,1473.73403273547
0.654,1473.73374132665
0.655,1473.73344936295
0.656,1473.73315685027
0.657,1473.73286379446
0.658,1473.73257020133
0.659,1473.73227607664
0.66,1473.73198142611
0.661,1473.73168625539
0.662,1473.73139057011
0.663,1473.73109437586
0.664,1473.73079767816
0.665,1473.7305004825
0.666,1473.73020279432
0.667,1473.72990461903
0.668,1473.72960596198
0.669,1473.72930682848
0.67,1473.72900722381
0.671,1473.72870715318
0.672,1473.72840662179
0.673,1473.72810563479
0.674,1473.72780419727
0.675,1473.72750231429
0.676,1473.72719999088
0.677,1473.72689723202
0.678,1473.72659404263
0.679,1473.72629042764
0.68,1473.72598639189
0.681,1473.72568194022
0.682,1473.72537707739
0.683000000000001,1473.72507180815
0.684000000000001,1473.72476613722
0.685000000000001,1473.72446006925
0.686000000000001,1473.72415360888
0.687000000000001,1473.7238467607
0.688000000000001,1473.72353952927
0.689000000000001,1473.7232319191
0.690000000000001,1473.72292393468
0.691000000000001,1473.72261558044
0.692000000000001,1473.72230686082
0.693000000000001,1473.72199778016
0.694000000000001,1473.72168834282
0.695000000000001,1473.7213785531
0.696000000000001,1473.72106841527
0.697000000000001,1473.72075793357
0.698000000000001,1473.72044711218
0.699000000000001,1473.72013595528
0.700000000000001,1473.71982446701
0.701000000000001,1473.71951265145
0.702000000000001,1473.71920051269
0.703000000000001,1473.71888805474
0.704000000000001,1473.71857528161
0.705000000000001,1473.71826219727
0.706000000000001,1473.71794880566
0.707000000000001,1473.71763511066
0.708000000000001,1473.71732111617
0.709000000000001,1473.71700682603
0.710000000000001,1473.71669224402
0.711000000000001,1473.71637737395
0.712000000000001,1473.71606221956
0.713000000000001,1473.71574678455
0.714000000000001,1473.71543107264
0.715000000000001,1473.71511508745
0.716000000000001,1473.71479883263
0.717000000000001,1473.71448231178
0.718000000000001,1473.71416552847
0.719000000000001,1473.71384848623
0.720000000000001,1473.71353118857
0.721000000000001,1473.71321363899
0.722000000000001,1473.71289584092
0.723000000000001,1473.71257779781
0.724000000000001,1473.71225951304
0.725000000000001,1473.71194098999
0.726000000000001,1473.711622232
0.727000000000001,1473.71130324239
0.728000000000001,1473.71098402446
0.729000000000001,1473.71066458144
0.730000000000001,1473.71034491659
0.731000000000001,1473.71002503313
0.732000000000001,1473.70970493421
0.733000000000001,1473.70938462301
0.734000000000001,1473.70906410267
0.735000000000001,1473.70874337627
0.736000000000001,1473.70842244691
0.737000000000001,1473.70810131763
0.738000000000001,1473.70777999148
0.739000000000001,1473.70745847146
0.740000000000001,1473.70713676054
0.741000000000001,1473.70681486168
0.742000000000001,1473.70649277783
0.743000000000001,1473.70617051188
0.744000000000001,1473.70584806672
0.745000000000001,1473.70552544521
0.746000000000001,1473.7052026502
0.747000000000001,1473.70487968449
0.748000000000001,1473.70455655088
0.749000000000001,1473.70423325214
0.750000000000001,1473.70390979101
0.751000000000001,1473.70358617021
0.752000000000001,1473.70326239246
0.753000000000001,1473.70293846043
0.754000000000001,1473.70261437676
0.755000000000001,1473.70229014411
0.756000000000001,1473.70196576509
0.757000000000001,1473.70164124229
0.758000000000001,1473.70131657826
0.759000000000001,1473.70099177558
0.760000000000001,1473.70066683677
0.761000000000001,1473.70034176435
0.762000000000001,1473.70001656077
0.763000000000001,1473.69969122854
0.764000000000001,1473.69936577008
0.765000000000001,1473.69904018783
0.766000000000001,1473.69871448419
0.767000000000001,1473.69838866155
0.768000000000001,1473.69806272228
0.769000000000001,1473.69773666873
0.770000000000001,1473.69741050322
0.771000000000001,1473.69708422807
0.772000000000001,1473.69675784557
0.773000000000001,1473.69643135798
0.774000000000001,1473.69610476756
0.775000000000001,1473.69577807654
0.776000000000001,1473.69545128715
0.777000000000001,1473.69512440157
0.778000000000001,1473.69479742199
0.779000000000001,1473.69447035057
0.780000000000001,1473.69414318945
0.781000000000001,1473.69381594075
0.782000000000001,1473.6934886066
0.783000000000001,1473.69316118908
0.784000000000001,1473.69283369025
0.785000000000001,1473.69250611218
0.786000000000001,1473.69217845691
0.787000000000001,1473.69185072646
0.788000000000001,1473.69152292283
0.789000000000001,1473.69119504801
0.790000000000001,1473.69086710398
0.791000000000001,1473.6905390927
0.792000000000001,1473.6902110161
0.793000000000001,1473.6898828761
0.794000000000001,1473.68955467462
0.795000000000001,1473.68922641354
0.796000000000001,1473.68889809475
0.797000000000001,1473.6885697201
