"Physical Time: Physical Time (s)","Surface Average Rear Temp1 Monitor: Surface Average of Temperature (K)"
0.001,873.000000000052
0.002,873.00000000069
0.003,873.000000004898
0.004,873.00000002419
0.005,873.000000093373
0.006,873.000000300165
0.007,873.000000836439
0.008,873.000002076575
0.009,873.000004685266
0.01,873.000009752608
0.011,873.000018949336
0.012,873.000034690885
0.013,873.000060296281
0.014,873.000100127125
0.015,873.000159693395
0.016,873.000245715672
0.017,873.000366137423
0.018,873.00053008503
0.019,873.000747778186
0.02,873.00103039561
0.021,873.001389904359
0.022,873.001838862285
0.023,873.002390204326
0.024,873.003057019701
0.025,873.003852334577
0.026,873.004788902589
0.027,873.005879011922
0.028,873.007134313233
0.029,873.008565671432
0.03,873.010183043001
0.031,873.011995379333
0.032,873.01401055798
0.033,873.01623532819
0.034,873.018675293625
0.035,873.021334905417
0.036,873.024217474889
0.037,873.027325201457
0.038,873.030659213057
0.039,873.034219616653
0.04,873.038005556574
0.041,873.042015278612
0.042,873.046246198041
0.043,873.05069496994
0.044,873.055357560447
0.045,873.060229317736
0.046,873.065305041789
0.047,873.070579052144
0.048,873.076045243091
0.049,873.081697177503
0.05,873.087528111202
0.051,873.093531059809
0.052,873.099698850668
0.053,873.106024170015
0.054,873.112499606333
0.055,873.119117689964
0.056,873.1258709291
0.057,873.132751842231
0.058,873.139752987241
0.059,873.146866987303
0.06,873.154086553766
0.061,873.161404506233
0.062,873.168813790004
0.063,873.176307491094
0.064,873.183878849021
0.065,873.191521267532
0.066,873.199228323447
0.067,873.206993773806
0.068,873.214811561463
0.069,873.222675819284
0.07,873.230580873091
0.071,873.238521243488
0.0720000000000001,873.246491646681
0.0730000000000001,873.254486994415
0.0740000000000001,873.262502393131
0.0750000000000001,873.270533142444
0.0760000000000001,873.27857473301
0.0770000000000001,873.286622843892
0.0780000000000001,873.294673339478
0.0790000000000001,873.302722266011
0.0800000000000001,873.310765847826
0.0810000000000001,873.318800483303
0.0820000000000001,873.326822740617
0.0830000000000001,873.33482935332
0.0840000000000001,873.342817057926
0.0850000000000001,873.350783095839
0.0860000000000001,873.358724666451
0.0870000000000001,873.366639107947
0.0880000000000001,873.374523903955
0.0890000000000001,873.38237667809
0.0900000000000001,873.390195188074
0.0910000000000001,873.397977320337
0.0920000000000001,873.405721084975
0.0930000000000001,873.413424610975
0.0940000000000001,873.421086141592
0.0950000000000001,873.428704029867
0.0960000000000001,873.436276734274
0.0970000000000001,873.443802814485
0.0980000000000001,873.451280927228
0.0990000000000001,873.458709822278
0.1,873.46608833856
0.101,873.473415400351
0.102,873.48069001361
0.103,873.487911262418
0.104,873.495078305528
0.105,873.502190373046
0.106,873.509246763192
0.107,873.516246839205
0.108,873.523190026337
0.109,873.530075808963
0.11,873.536903727795
0.111,873.543673377202
0.112,873.550384402624
0.113,873.557036498096
0.114,873.563629403852
0.115,873.570162904043
0.116,873.576636824533
0.117,873.583051030785
0.118,873.58940542583
0.119,873.595699948332
0.12,873.60193457072
0.121,873.608109297402
0.122,873.614224163056
0.123,873.620279230991
0.124,873.626274591584
0.125,873.632210360774
0.126,873.638086678628
0.127,873.643903707974
0.128,873.649661633084
0.129,873.655360658422
0.13,873.661001007446
0.131,873.666582921465
0.132,873.672106658542
0.133,873.677572492461
0.134,873.682980711717
0.135,873.68833161858
0.136,873.693625528178
0.137,873.698862767643
0.138,873.704043675281
0.139,873.709168599787
0.14,873.7142378995
0.141,873.719251941687
0.142,873.72421110187
0.143,873.729115763176
0.144,873.733966315717
0.145,873.738763156018
0.146,873.74350668645
0.147,873.748197314703
0.148,873.752835453287
0.149,873.757421519045
0.15,873.761955932712
0.151,873.766439118469
0.152,873.770871503546
0.153,873.775253517826
0.154,873.779585593478
0.155,873.783868164608
0.156,873.788101666926
0.157,873.792286537435
0.158,873.79642321413
0.159,873.800512135718
0.16,873.804553355454
0.161,873.808547780582
0.162,873.812495842501
0.163,873.816397955412
0.164,873.820254541292
0.165,873.824066027963
0.166,873.827832846238
0.167,873.831555428109
0.168,873.835234205662
0.169,873.838869610405
0.17,873.84246207283
0.171,873.846012022097
0.172,873.849519885798
0.173,873.852986089773
0.174,873.856411057944
0.175,873.859795212178
0.176,873.863138972177
0.177,873.866442755354
0.178,873.869706976743
0.179,873.872932048913
0.18,873.876118381875
0.181,873.879266383019
0.182,873.882376457039
0.183,873.885449005872
0.184,873.888484428643
0.185,873.891483121604
0.186,873.8944454781
0.187,873.897371888515
0.188,873.900262740236
0.189,873.903118417618
0.19,873.905939301951
0.191,873.908725771438
0.192,873.911478201155
0.193,873.914196963048
0.194,873.916882425899
0.195,873.919534955317
0.196,873.922154913721
0.197,873.924742660333
0.198,873.927298551162
0.199,873.929822939004
0.2,873.932316173433
0.201,873.9347786008
0.202,873.937210564233
0.203,873.939612403633
0.204,873.941984455682
0.205,873.944327053846
0.206,873.946640528374
0.207,873.948925206318
0.208,873.951181411524
0.209,873.953409464656
0.21,873.955609683201
0.211,873.957782381475
0.212,873.959927870646
0.213,873.962046458742
0.214,873.964138450664
0.215,873.966204148201
0.216,873.96824385005
0.217,873.970257851831
0.218,873.972246446105
0.219,873.974209922384
0.22,873.976148567166
0.221,873.978062663936
0.222,873.979952493202
0.223,873.981818332499
0.224,873.983660456425
0.225,873.98547913665
0.226,873.987274641945
0.227,873.989047238195
0.228,873.990797188436
0.229,873.992524752856
0.23,873.994230188839
0.231,873.995913750973
0.232,873.997575691076
0.233,873.999216258223
0.234,874.000835698764
0.235,874.002434256355
0.236,874.004012171969
0.237,874.005569683929
0.238,874.007107027936
0.239,874.008624437074
0.24,874.010122141856
0.241,874.011600370229
0.242,874.013059347612
0.243,874.014499296907
0.244,874.015920438537
0.245,874.017322990456
0.246,874.01870716818
0.247,874.02007318481
0.248,874.021421251051
0.249,874.022751575246
0.25,874.024064363383
0.251,874.025359819136
0.252,874.026638143878
0.253,874.0278995367
0.254,874.029143635135
0.255,874.030371308307
0.256,874.03158273451
0.257,874.032778070507
0.258,874.033957482305
0.259,874.035121142412
0.26,874.036269226315
0.261,874.037401910344
0.262,874.038519370498
0.263,874.039621781789
0.264,874.040709317887
0.265,874.041782150908
0.266,874.042840451291
0.267,874.043884387735
0.268,874.044914127165
0.269,874.045929834697
0.27,874.046931673651
0.271,874.047919805534
0.272,874.048894390053
0.273,874.049855585123
0.274,874.05080354688
0.275,874.051738429689
0.276,874.052660386165
0.277,874.053569567182
0.278,874.054466121894
0.279,874.055350197748
0.28,874.056221940501
0.281,874.057081494242
0.282,874.0579290014
0.283,874.058764602767
0.284,874.059588437516
0.285,874.060400643218
0.286,874.061201355854
0.287,874.061990709837
0.288,874.062768838028
0.289,874.063535871753
0.29,874.064291940819
0.291,874.065037173531
0.292,874.065771696711
0.293,874.06649563571
0.294,874.067209114425
0.295,874.067912255321
0.296,874.068605179441
0.297,874.069288006422
0.298,874.069960854517
0.299,874.070623840601
0.3,874.071277080196
0.301,874.071920687479
0.302,874.072554775303
0.303,874.073179455206
0.304,874.073794837432
0.305,874.074401030943
0.306,874.07499814343
0.307,874.075586281335
0.308,874.076165549861
0.309,874.076736052982
0.31,874.077297893466
0.311,874.077851172883
0.312,874.078395991619
0.313,874.078932448892
0.314,874.079460642763
0.315,874.07998067015
0.316,874.080492626842
0.317,874.080996607512
0.318,874.081492705728
0.319,874.081981013967
0.32,874.082461623629
0.321,874.082934625044
0.322,874.083400107495
0.323,874.083858159217
0.324,874.084308867416
0.325,874.084752318288
0.326,874.085188597013
0.327,874.085617787782
0.328,874.086039973803
0.329,874.08645523731
0.33,874.086863659581
0.331,874.087265320942
0.332,874.087660300784
0.333,874.088048677564
0.334,874.088430528832
0.335,874.088805931224
0.336,874.089174960486
0.337,874.089537691478
0.338,874.089894198185
0.339,874.090244553726
0.34,874.090588830368
0.341,874.090927099534
0.342,874.091259431809
0.343,874.091585896956
0.344,874.091906563923
0.345,874.09222150085
0.346,874.092530775081
0.347,874.092834453175
0.348,874.09313260091
0.349,874.093425283298
0.35,874.093712564586
0.351,874.093994508279
0.352,874.094271177128
0.353,874.094542633159
0.354,874.094808937672
0.355,874.095070151243
0.356,874.095326333746
0.357,874.095577544357
0.358,874.095823841556
0.359,874.096065283136
0.36,874.096301926218
0.361,874.096533251193
0.362,874.096759998818
0.363,874.096982209471
0.364,874.097199908027
0.365,874.097413128823
0.366,874.097621913086
0.367,874.097826305847
0.368,874.098026354103
0.369,874.098222105785
0.37,874.098413609186
0.371,874.098600912627
0.372,874.098784064261
0.373,874.098963111953
0.374,874.099138103211
0.375,874.099309085134
0.376,874.099476104379
0.377,874.099639207149
0.378,874.099798439171
0.379,874.099953845699
0.38,874.100105471495
0.381,874.100253360846
0.382,874.100397557538
0.383,874.100538104884
0.384,874.100675045706
0.385,874.100808422347
0.386,874.100938276668
0.387,874.101064650061
0.388,874.101187583439
0.389,874.101307117255
0.39,874.101423291492
0.391,874.101536145679
0.392,874.101645718883
0.393,874.101752049732
0.394,874.101855176398
0.395,874.101955136618
0.396,874.102051967689
0.397,874.102145706476
0.398,874.102236389418
0.399,874.102324052533
0.4,874.102408731417
0.401,874.102490461253
0.402,874.102569276818
0.403,874.10264521248
0.404,874.102718302212
0.405,874.102788579586
0.406,874.102856077787
0.407,874.10292082961
0.408,874.102982867471
0.409,874.103042223406
0.41,874.103098929075
0.411,874.103153015774
0.412,874.103204514428
0.413,874.103253455605
0.414,874.103299869514
0.415,874.103343786014
0.416,874.103385234608
0.417,874.103424244464
0.418,874.1034608444
0.419,874.103495062904
0.42,874.103526928129
0.421,874.103556467897
0.422,874.103583709706
0.423,874.103608680734
0.424,874.103631407838
0.425,874.103651917564
0.426,874.103670236145
0.427,874.103686389509
0.428,874.103700403281
0.429,874.103712302785
0.43,874.10372211305
0.431,874.103729858808
0.432,874.10373556451
0.433,874.103739254313
0.434,874.103740952094
0.435,874.103740681454
0.436,874.103738465712
0.437,874.10373432792
0.438,874.103728290856
0.439,874.103720377032
0.44,874.1037106087
0.441,874.103699007847
0.442,874.103685596206
0.443,874.103670395254
0.444,874.103653426218
0.445,874.103634710077
0.446,874.10361426756
0.447,874.103592119162
0.448,874.103568285129
0.449,874.103542785476
0.45,874.10351563998
0.451,874.103486868192
0.452,874.103456489429
0.453,874.103424522784
0.454,874.103390987125
0.455,874.103355901101
0.456,874.103319283144
0.457,874.103281151469
0.458,874.103241524075
0.459,874.103200418754
0.46,874.103157853091
0.461,874.10311384446
0.462,874.103068410035
0.463,874.103021566789
0.464,874.102973331496
0.465,874.102923720735
0.466,874.102872750889
0.467,874.102820438149
0.468,874.102766798519
0.469,874.102711847814
0.47,874.102655601664
0.471,874.102598075516
0.472,874.102539284636
0.473,874.102479244115
0.474,874.102417968862
0.475,874.102355473612
0.476,874.102291772934
0.477,874.102226881219
0.478,874.102160812693
0.479,874.102093581416
0.48,874.102025201282
0.481,874.101955686022
0.482,874.101885049209
0.483,874.101813304257
0.484,874.101740464418
0.485,874.101666542793
0.486,874.10159155233
0.487,874.101515505826
0.488,874.101438415925
0.489,874.101360295126
0.49,874.10128115578
0.491,874.101201010094
0.492,874.101119870133
0.493,874.101037747819
0.494,874.100954654936
0.495,874.100870603131
0.496,874.100785603913
0.497,874.100699668655
0.498,874.1006128086
0.499,874.100525034858
0.5,874.100436358408
0.501,874.100346790104
0.502,874.100256340668
0.503,874.1001650207
0.504,874.100072840676
0.505,874.099979810946
0.506,874.099885941743
0.507,874.099791243179
0.508,874.099695725248
0.509,874.099599397824
0.51,874.099502270668
0.511,874.099404353428
0.512,874.099305655635
0.513,874.099206186712
0.514,874.099105955975
0.515,874.099004972623
0.516,874.098903245748
0.517,874.098800784344
0.518,874.098697597292
0.519,874.098593693374
0.52,874.098489081263
0.521,874.098383769535
0.522,874.098277766667
0.523,874.098171081034
0.524,874.098063720911
0.525,874.097955694483
0.526,874.097847009832
0.527,874.097737674949
0.528,874.097627697731
0.529,874.097517085982
0.53,874.097405847417
0.531,874.097293989657
0.532,874.097181520237
0.533,874.097068446599
0.534,874.096954776105
0.535,874.096840516026
0.536,874.096725673551
0.537,874.09661025578
0.538,874.096494269734
0.539,874.096377722351
0.54,874.096260620485
0.541,874.096142970917
0.542,874.096024780338
0.543,874.095906055373
0.544,874.095786802559
0.545,874.095667028362
0.546,874.095546739167
0.547,874.095425941293
0.548,874.09530464098
0.549,874.095182844391
0.55,874.095060557624
0.551,874.094937786703
0.552,874.094814537578
0.553,874.094690816136
0.554,874.094566628189
0.555,874.094441979483
0.556,874.094316875701
0.557,874.094191322452
0.558,874.094065325284
0.559,874.09393888968
0.56,874.093812021056
0.561,874.09368472477
0.562,874.093557006109
0.563,874.093428870307
0.564,874.093300322528
0.565,874.093171367886
0.566,874.093042011425
0.567,874.092912258137
0.568,874.092782112951
0.569,874.092651580739
0.57,874.092520666321
0.571,874.092389374453
0.572,874.09225770984
0.573,874.092125677132
0.574,874.091993280921
0.575,874.091860525751
0.576,874.091727416108
0.577,874.091593956424
0.578,874.091460151086
0.579,874.091326004426
0.58,874.091191520722
0.581,874.091056704206
0.582,874.09092155906
0.583,874.090786089417
0.584,874.09065029936
0.585,874.090514192925
0.586,874.090377774101
0.587,874.090241046831
0.588,874.09010401501
0.589,874.089966682488
0.59,874.089829053073
0.591,874.089691130523
0.592,874.089552918557
0.593,874.089414420846
0.594,874.089275641022
0.595,874.089136582673
0.596,874.088997249342
0.597,874.088857644537
0.598,874.088717771717
0.599,874.088577634309
0.6,874.088437235691
0.601,874.088296579209
0.602,874.088155668167
0.603,874.088014505827
0.604,874.087873095421
0.605,874.087731440132
0.606,874.087589543115
0.607,874.087447407485
0.608,874.08730503632
0.609,874.087162432661
0.61,874.087019599516
0.611,874.086876539857
0.612,874.086733256617
0.613,874.086589752702
0.614,874.086446030979
0.615,874.086302094284
0.616,874.086157945414
0.617,874.086013587144
0.618,874.085869022203
0.619,874.0857242533
0.62,874.085579283107
0.621,874.085434114265
0.622,874.085288749382
0.623,874.085143191039
0.624,874.084997441787
0.625,874.084851504144
0.626,874.084705380599
0.627,874.084559073615
0.628,874.084412585623
0.629,874.084265919025
0.63,874.084119076199
0.631,874.083972059493
0.632,874.083824871223
0.633,874.083677513686
0.634,874.083529989145
0.635,874.083382299841
0.636,874.083234447986
0.637,874.083086435768
0.638,874.082938265351
0.639,874.082789938868
0.64,874.082641458431
0.641,874.082492826128
0.642,874.082344044018
0.643,874.082195114142
0.644,874.082046038512
0.645,874.081896819121
0.646,874.081747457932
0.647,874.081597956892
0.648,874.081448317922
0.649,874.08129854292
0.65,874.081148633763
0.651,874.080998592305
0.652,874.080848420381
0.653,874.080698119798
0.654,874.080547692349
0.655,874.080397139802
0.656,874.080246463907
0.657,874.08009566639
0.658,874.079944748958
0.659,874.0797937133
0.66,874.079642561086
0.661,874.079491293959
0.662,874.079339913552
0.663,874.079188421472
0.664,874.079036819312
0.665,874.078885108643
0.666,874.07873329102
0.667,874.078581367977
0.668,874.078429341033
0.669,874.078277211686
0.67,874.078124981422
0.671,874.077972651702
0.672,874.077820223974
0.673,874.077667699672
0.674,874.077515080205
0.675,874.077362366975
0.676,874.07720956136
0.677,874.077056664726
0.678,874.07690367842
0.679,874.076750603777
0.68,874.076597442113
0.681,874.076444194731
0.682,874.076290862916
0.683000000000001,874.076137447942
0.684000000000001,874.075983951062
0.685000000000001,874.075830373519
0.686000000000001,874.075676716542
0.687000000000001,874.075522981343
0.688000000000001,874.075369169119
0.689000000000001,874.075215281057
0.690000000000001,874.075061318325
0.691000000000001,874.074907282082
0.692000000000001,874.07475317347
0.693000000000001,874.074598993619
0.694000000000001,874.074444743649
0.695000000000001,874.074290424657
0.696000000000001,874.074136037739
0.697000000000001,874.07398158397
0.698000000000001,874.073827064417
0.699000000000001,874.073672480131
0.700000000000001,874.073517832153
0.701000000000001,874.073363121512
0.702000000000001,874.073208349221
0.703000000000001,874.073053516289
0.704000000000001,874.072898623704
0.705000000000001,874.072743672446
0.706000000000001,874.072588663489
0.707000000000001,874.072433597786
0.708000000000001,874.072278476286
0.709000000000001,874.072123299922
0.710000000000001,874.071968069622
0.711000000000001,874.071812786296
0.712000000000001,874.07165745085
0.713000000000001,874.071502064174
0.714000000000001,874.07134662715
0.715000000000001,874.071191140649
0.716000000000001,874.071035605533
0.717000000000001,874.070880022653
0.718000000000001,874.07072439285
0.719000000000001,874.070568716953
0.720000000000001,874.070412995788
0.721000000000001,874.070257230162
0.722000000000001,874.07010142088
0.723000000000001,874.069945568733
0.724000000000001,874.069789674505
0.725000000000001,874.069633738971
0.726000000000001,874.069477762895
0.727000000000001,874.069321747033
0.728000000000001,874.069165692134
0.729000000000001,874.069009598936
0.730000000000001,874.068853468167
0.731000000000001,874.068697300551
0.732000000000001,874.068541096797
0.733000000000001,874.068384857612
0.734000000000001,874.068228583691
0.735000000000001,874.068072275724
0.736000000000001,874.067915934387
0.737000000000001,874.067759560355
0.738000000000001,874.06760315429
0.739000000000001,874.06744671685
0.740000000000001,874.067290248681
0.741000000000001,874.067133750425
0.742000000000001,874.066977222715
0.743000000000001,874.066820666176
0.744000000000001,874.066664081429
0.745000000000001,874.066507469082
0.746000000000001,874.066350829741
0.747000000000001,874.066194164001
0.748000000000001,874.066037472454
0.749000000000001,874.065880755681
0.750000000000001,874.065724014258
0.751000000000001,874.065567248756
0.752000000000001,874.065410459736
0.753000000000001,874.065253647753
0.754000000000001,874.065096813357
0.755000000000001,874.064939957093
0.756000000000001,874.064783079495
0.757000000000001,874.064626181093
0.758000000000001,874.064469262413
0.759000000000001,874.064312323971
0.760000000000001,874.06415536628
0.761000000000001,874.063998389843
0.762000000000001,874.063841395164
0.763000000000001,874.063684382733
0.764000000000001,874.063527353038
0.765000000000001,874.063370306563
0.766000000000001,874.063213243784
0.767000000000001,874.063056165171
0.768000000000001,874.062899071191
0.769000000000001,874.062741962303
0.770000000000001,874.06258483896
0.771000000000001,874.062427701614
0.772000000000001,874.062270550707
0.773000000000001,874.062113386676
0.774000000000001,874.061956209957
0.775000000000001,874.061799020977
0.776000000000001,874.061641820159
0.777000000000001,874.061484607924
0.778000000000001,874.061327384682
0.779000000000001,874.061170150842
0.780000000000001,874.061012906807
0.781000000000001,874.060855652979
0.782000000000001,874.060698389748
0.783000000000001,874.060541117505
0.784000000000001,874.060383836637
0.785000000000001,874.060226547523
0.786000000000001,874.060069250536
0.787000000000001,874.059911946052
0.788000000000001,874.059754634435
0.789000000000001,874.059597316048
0.790000000000001,874.059439991249
0.791000000000001,874.059282660395
0.792000000000001,874.059125323831
0.793000000000001,874.058967981909
0.794000000000001,874.058810634966
0.795000000000001,874.05865328334
0.796000000000001,874.058495927366
