"Physical Time: Physical Time (s)","Surface Average Rear Temp1 Monitor: Surface Average of Temperature (K)"
0.001,1473
0.002,1473
0.003,1473
0.004,1473.00000000003
0.005,1473.00000000014
0.006,1473.00000000055
0.007,1473.00000000181
0.008,1473.00000000529
0.009,1473.00000001396
0.01,1473.00000003385
0.011,1473.00000007626
0.012,1473.00000016109
0.013,1473.00000032156
0.014,1473.0000006105
0.015,1473.00000110826
0.016,1473.00000193252
0.017,1473.00000324962
0.018,1473.00000528738
0.019,1473.00000834906
0.02,1473.00001282789
0.021,1473.0000192217
0.022,1473.00002814716
0.023,1473.00004035291
0.024,1473.00005673113
0.025,1473.00007832698
0.026,1473.00010634558
0.027,1473.00014215622
0.028,1473.00018729351
0.029,1473.00024345548
0.03,1473.0003124987
0.031,1473.00039643042
0.032,1473.00049739805
0.033,1473.00061767622
0.034,1473.00075965179
0.035,1473.00092580712
0.036,1473.00111870205
0.037,1473.00134095495
0.038,1473.00159522436
0.039,1473.0018841857
0.04,1473.00221051587
0.041,1473.00257687247
0.042,1473.00298587562
0.043,1473.00344009054
0.044,1473.00394201138
0.045,1473.00449404623
0.046,1473.00509850353
0.047,1473.00575757998
0.048,1473.00647334987
0.049,1473.00724775596
0.05,1473.00808260181
0.051,1473.00897954564
0.052,1473.00994009549
0.053,1473.01096560579
0.054,1473.0120572752
0.055,1473.01321614552
0.056,1473.01444310185
0.057,1473.01573887358
0.058,1473.01710403638
0.059,1473.01853901494
0.06,1473.02004408646
0.061,1473.02161938468
0.062,1473.02326490455
0.063,1473.02498051542
0.064,1473.02676593922
0.065,1473.02862078752
0.066,1473.03054455449
0.067,1473.0325366235
0.068,1473.03459627347
0.069,1473.03672268524
0.07,1473.03891494792
0.071,1473.04117206518
0.0720000000000001,1473.04349296152
0.0730000000000001,1473.04587648842
0.0740000000000001,1473.04832143034
0.0750000000000001,1473.05082651065
0.0760000000000001,1473.05339039729
0.0770000000000001,1473.05601170835
0.0780000000000001,1473.05868901739
0.0790000000000001,1473.06142085866
0.0800000000000001,1473.06420573195
0.0810000000000001,1473.0670421074
0.0820000000000001,1473.06992842994
0.0830000000000001,1473.07286312365
0.0840000000000001,1473.07584459577
0.0850000000000001,1473.07887124061
0.0860000000000001,1473.08194144313
0.0870000000000001,1473.08505358241
0.0880000000000001,1473.08820603485
0.0890000000000001,1473.09139717717
0.0900000000000001,1473.09462538921
0.0910000000000001,1473.09788905661
0.0920000000000001,1473.10118657317
0.0930000000000001,1473.10451634315
0.0940000000000001,1473.10787678333
0.0950000000000001,1473.11126632492
0.0960000000000001,1473.11468341533
0.0970000000000001,1473.11812651979
0.0980000000000001,1473.12159412276
0.0990000000000001,1473.12508472929
0.1,1473.12859686621
0.101,1473.13212908317
0.102,1473.13567995364
0.103,1473.13924807568
0.104,1473.14283207277
0.105,1473.14643059434
0.106,1473.15004231642
0.107,1473.15366594201
0.108,1473.15730017385
0.109,1473.16094380179
0.11,1473.16459561072
0.111,1473.16825441398
0.112,1473.17191905333
0.113,1473.17558839897
0.114,1473.17926134946
0.115,1473.18293683165
0.116,1473.18661380053
0.117,1473.19029123911
0.118,1473.19396815822
0.119,1473.19764359631
0.12,1473.2013166192
0.121,1473.20498631981
0.122,1473.20865181788
0.123,1473.21231225963
0.124,1473.21596681742
0.125,1473.21961468942
0.126,1473.22325509923
0.127,1473.22688729548
0.128,1473.23051055142
0.129,1473.23412416457
0.13,1473.23772745621
0.131,1473.24131977104
0.132,1473.24490047668
0.133,1473.24846896329
0.134,1473.25202464306
0.135,1473.25556694983
0.136,1473.25909533859
0.137,1473.26260928506
0.138,1473.26610828523
0.139,1473.26959185492
0.14,1473.27305952932
0.141,1473.27651086255
0.142,1473.27994542723
0.143,1473.283362814
0.144,1473.28676263114
0.145,1473.29014450409
0.146,1473.29350807505
0.147,1473.29685300253
0.148,1473.30017896097
0.149,1473.3034856403
0.15,1473.30677274552
0.151,1473.31003999636
0.152,1473.31328712679
0.153,1473.31651388473
0.154,1473.3197200316
0.155,1473.32290534198
0.156,1473.3260696032
0.157,1473.32921261504
0.158,1473.33233418932
0.159,1473.33543414958
0.16,1473.33851233073
0.161,1473.3415685787
0.162,1473.34460275015
0.163,1473.34761471211
0.164,1473.35060434169
0.165,1473.35357152576
0.166,1473.35651616065
0.167,1473.35943815189
0.168,1473.36233741384
0.169,1473.36521386952
0.17,1473.36806745024
0.171,1473.37089809538
0.172,1473.37370575213
0.173,1473.37649037523
0.174,1473.3792519267
0.175,1473.38199037563
0.176,1473.38470569792
0.177,1473.38739787607
0.178,1473.39006689894
0.179,1473.39271276154
0.18,1473.3953354648
0.181,1473.39793501539
0.182,1473.40051142551
0.183,1473.40306471268
0.184,1473.40559489955
0.185,1473.40810201372
0.186,1473.41058608759
0.187,1473.41304715812
0.188,1473.4154852667
0.189,1473.41790045899
0.19,1473.42029278473
0.191,1473.42266229761
0.192,1473.42500905508
0.193,1473.42733311826
0.194,1473.42963455173
0.195,1473.43191342344
0.196,1473.43416980455
0.197,1473.43640376929
0.198,1473.43861539487
0.199,1473.44080476131
0.2,1473.44297195134
0.201,1473.44511705028
0.202,1473.44724014595
0.203,1473.4493413285
0.204,1473.45142069036
0.205,1473.45347832612
0.206,1473.45551433242
0.207,1473.45752880785
0.208,1473.45952185286
0.209,1473.46149356969
0.21,1473.46344406224
0.211,1473.46537343602
0.212,1473.46728179804
0.213,1473.46916908138
0.214,1473.47103560404
0.215,1473.47288146608
0.216,1473.47470677343
0.217,1473.47651163534
0.218,1473.47829616358
0.219,1473.48006047183
0.22,1473.48180467525
0.221,1473.48352889025
0.222,1473.48523323424
0.223,1473.48691782558
0.224,1473.48858278339
0.225,1473.49022822751
0.226,1473.49185427842
0.227,1473.49346105719
0.228,1473.49504868538
0.229,1473.49661728502
0.23,1473.49816697857
0.231,1473.49969788882
0.232,1473.5012101389
0.233,1473.50270385221
0.234,1473.50417915237
0.235,1473.50563616322
0.236,1473.50707500872
0.237,1473.50849581297
0.238,1473.50989870014
0.239,1473.51128379445
0.24,1473.51265122014
0.241,1473.51400110142
0.242,1473.51533356246
0.243,1473.51664872736
0.244,1473.51794672011
0.245,1473.51922766456
0.246,1473.52049168442
0.247,1473.5217389032
0.248,1473.52296944421
0.249,1473.52418343055
0.25,1473.52538098503
0.251,1473.52656223022
0.252,1473.52772728839
0.253,1473.52887628148
0.254,1473.53000933112
0.255,1473.53112655859
0.256,1473.53222808479
0.257,1473.53331403024
0.258,1473.53438451507
0.259,1473.535439659
0.26,1473.53647958131
0.261,1473.53750440084
0.262,1473.53851423598
0.263,1473.53950920465
0.264,1473.54048942429
0.265,1473.54145501185
0.266,1473.54240608378
0.267,1473.54334275601
0.268,1473.54426514397
0.269,1473.54517336253
0.27,1473.54606752604
0.271,1473.54694774829
0.272,1473.54781414251
0.273,1473.54866682139
0.274,1473.54950589702
0.275,1473.55033148093
0.276,1473.55114368406
0.277,1473.55194261676
0.278,1473.55272838878
0.279,1473.55350110928
0.28,1473.5542608868
0.281,1473.55500782928
0.282,1473.55574204405
0.283,1473.5564636378
0.284,1473.55717271662
0.285,1473.55786938596
0.286,1473.55855375065
0.287,1473.55922591488
0.288,1473.55988598222
0.289,1473.5605340556
0.29,1473.56117023729
0.291,1473.56179462895
0.292,1473.56240733158
0.293,1473.56300844554
0.294,1473.56359807056
0.295,1473.56417630569
0.296,1473.56474324938
0.297,1473.56529899939
0.298,1473.56584365287
0.299,1473.5663773063
0.3,1473.56690005551
0.301,1473.5674119957
0.302,1473.56791322142
0.303,1473.56840382656
0.304,1473.56888390437
0.305,1473.56935354746
0.306,1473.5698128478
0.307,1473.57026189671
0.308,1473.57070078485
0.309,1473.57112960227
0.31,1473.57154843837
0.311,1473.5719573819
0.312,1473.57235652098
0.313,1473.5727459431
0.314,1473.57312573511
0.315,1473.57349598324
0.316,1473.57385677307
0.317,1473.57420818957
0.318,1473.57455031707
0.319,1473.5748832393
0.32,1473.57520703933
0.321,1473.57552179966
0.322,1473.57582760212
0.323,1473.57612452798
0.324,1473.57641265785
0.325,1473.57669207177
0.326,1473.57696284914
0.327,1473.57722506878
0.328,1473.5774788089
0.329,1473.57772414711
0.33,1473.57796116043
0.331,1473.57818992528
0.332,1473.57841051749
0.333,1473.57862301232
0.334,1473.57882748442
0.335,1473.57902400789
0.336,1473.57921265621
0.337,1473.57939350232
0.338,1473.57956661858
0.339,1473.57973207678
0.34,1473.57988994813
0.341,1473.58004030331
0.342,1473.5801832124
0.343,1473.58031874496
0.344,1473.58044696998
0.345,1473.5805679559
0.346,1473.58068177061
0.347,1473.58078848148
0.348,1473.58088815531
0.349,1473.58098085839
0.35,1473.58106665645
0.351,1473.58114561471
0.352,1473.58121779786
0.353,1473.58128327006
0.354,1473.58134209497
0.355,1473.58139433569
0.356,1473.58144005486
0.357,1473.58147931458
0.358,1473.58151217644
0.359,1473.58153870155
0.36,1473.58155895049
0.361,1473.58157298337
0.362,1473.58158085979
0.363,1473.58158263887
0.364,1473.58157837925
0.365,1473.58156813907
0.366,1473.58155197599
0.367,1473.5815299472
0.368,1473.58150210944
0.369,1473.58146851894
0.37,1473.58142923148
0.371,1473.5813843024
0.372,1473.58133378654
0.373,1473.5812777383
0.374,1473.58121621164
0.375,1473.58114926006
0.376,1473.58107693661
0.377,1473.5809992939
0.378,1473.5809163841
0.379,1473.58082825893
0.38,1473.5807349697
0.381,1473.58063656728
0.382,1473.58053310211
0.383,1473.58042462419
0.384,1473.58031118313
0.385,1473.5801928281
0.386,1473.58006960787
0.387,1473.57994157079
0.388,1473.57980876479
0.389,1473.57967123741
0.39,1473.57952903579
0.391,1473.57938220667
0.392,1473.57923079637
0.393,1473.57907485085
0.394,1473.57891441566
0.395,1473.57874953598
0.396,1473.57858025657
0.397,1473.57840662184
0.398,1473.57822867583
0.399,1473.57804646217
0.4,1473.57786002415
0.401,1473.57766940466
0.402,1473.57747464626
0.403,1473.57727579111
0.404,1473.57707288104
0.405,1473.57686595749
0.406,1473.57665511635
0.407,1473.57644033822
0.408,1473.57622166775
0.409,1473.57599914577
0.41,1473.5757728122
0.411,1473.57554270656
0.412,1473.57530886808
0.413,1473.57507133566
0.414,1473.57483014786
0.415,1473.57458534289
0.416,1473.5743369586
0.417,1473.57408503249
0.418,1473.57382960172
0.419,1473.57357070309
0.42,1473.57330837307
0.421,1473.57304264781
0.422,1473.57277356311
0.423,1473.57250115447
0.424,1473.57222545706
0.425,1473.57194650575
0.426,1473.5716643351
0.427,1473.57137897936
0.428,1473.57109047248
0.429,1473.57079884811
0.43,1473.57050413963
0.431,1473.57020638008
0.432,1473.56990560227
0.433,1473.56960183867
0.434,1473.5692951215
0.435,1473.5689854827
0.436,1473.5686729539
0.437,1473.5683575665
0.438,1473.56803935158
0.439,1473.56771833998
0.44,1473.56739456227
0.441,1473.56706804873
0.442,1473.56673882939
0.443,1473.56640693403
0.444,1473.56607239215
0.445,1473.565735233
0.446,1473.56539548558
0.447,1473.56505317862
0.448,1473.56470834061
0.449,1473.56436099979
0.45,1473.56401118416
0.451,1473.56365892145
0.452,1473.56330423918
0.453,1473.5629471646
0.454,1473.56258772473
0.455,1473.56222594636
0.456,1473.56186185604
0.457,1473.56149548009
0.458,1473.56112684458
0.459,1473.56075597538
0.46,1473.56038289811
0.461,1473.56000763817
0.462,1473.55963022074
0.463,1473.55925067078
0.464,1473.55886901302
0.465,1473.55848527198
0.466,1473.55809947196
0.467,1473.55771163704
0.468,1473.55732179111
0.469,1473.55692995782
0.47,1473.55653616063
0.471,1473.55614042278
0.472,1473.55574276732
0.473,1473.55534321707
0.474,1473.55494179468
0.475,1473.55453852257
0.476,1473.55413342299
0.477,1473.55372651797
0.478,1473.55331782934
0.479,1473.55290737877
0.48,1473.5524951877
0.481,1473.55208127739
0.482,1473.55166566894
0.483,1473.55124838322
0.484,1473.55082944093
0.485,1473.5504088626
0.486,1473.54998666856
0.487,1473.54956287897
0.488,1473.5491375138
0.489,1473.54871059285
0.49,1473.54828213573
0.491,1473.54785216191
0.492,1473.54742069063
0.493,1473.54698774102
0.494,1473.54655333198
0.495,1473.5461174823
0.496,1473.54568021055
0.497,1473.54524153517
0.498,1473.54480147441
0.499,1473.54436004637
0.5,1473.54391726899
0.501,1473.54347316004
0.502,1473.54302773715
0.503,1473.54258101775
0.504,1473.54213301916
0.505,1473.54168375853
0.506,1473.54123325283
0.507,1473.54078151892
0.508,1473.54032857348
0.509,1473.53987443305
0.51,1473.53941911401
0.511,1473.5389626326
0.512,1473.53850500493
0.513,1473.53804624695
0.514,1473.53758637444
0.515,1473.53712540309
0.516,1473.53666334842
0.517,1473.5362002258
0.518,1473.53573605048
0.519,1473.53527083756
0.52,1473.53480460202
0.521,1473.53433735869
0.522,1473.53386912226
0.523,1473.53339990731
0.524,1473.53292972827
0.525,1473.53245859944
0.526,1473.53198653499
0.527,1473.53151354898
0.528,1473.53103965532
0.529,1473.53056486781
0.53,1473.5300892001
0.531,1473.52961266574
0.532,1473.52913527816
0.533,1473.52865705065
0.534,1473.52817799638
0.535,1473.52769812841
0.536,1473.52721745968
0.537,1473.52673600301
0.538,1473.5262537711
0.539,1473.52577077654
0.54,1473.5252870318
0.541,1473.52480254924
0.542,1473.52431734109
0.543,1473.52383141951
0.544,1473.5233447965
0.545,1473.52285748399
0.546,1473.52236949376
0.547,1473.52188083753
0.548,1473.52139152687
0.549,1473.52090157326
0.55,1473.52041098809
0.551,1473.51991978262
0.552,1473.51942796803
0.553,1473.51893555537
0.554,1473.51844255561
0.555,1473.51794897962
0.556,1473.51745483815
0.557,1473.51696014187
0.558,1473.51646490135
0.559,1473.51596912705
0.56,1473.51547282933
0.561,1473.51497601849
0.562,1473.51447870469
0.563,1473.51398089803
0.564,1473.5134826085
0.565,1473.51298384598
0.566,1473.51248462031
0.567,1473.51198494118
0.568,1473.51148481824
0.569,1473.51098426101
0.57,1473.51048327895
0.571,1473.50998188141
0.572,1473.50948007768
0.573,1473.50897787693
0.574,1473.50847528828
0.575,1473.50797232074
0.576,1473.50746898324
0.577,1473.50696528463
0.578,1473.50646123368
0.579,1473.50595683908
0.58,1473.50545210943
0.581,1473.50494705326
0.582,1473.504441679
0.583,1473.50393599502
0.584,1473.50343000961
0.585,1473.50292373098
0.586,1473.50241716726
0.587,1473.50191032649
0.588,1473.50140321667
0.589,1473.5008958457
0.59,1473.50038822141
0.591,1473.49988035154
0.592,1473.49937224379
0.593,1473.49886390576
0.594,1473.49835534499
0.595,1473.49784656895
0.596,1473.49733758503
0.597,1473.49682840057
0.598,1473.49631902281
0.599,1473.49580945895
0.6,1473.4952997161
0.601,1473.49478980131
0.602,1473.49427972158
0.603,1473.49376948381
0.604,1473.49325909486
0.605,1473.49274856152
0.606,1473.49223789051
0.607,1473.49172708848
0.608,1473.49121616204
0.609,1473.49070511771
0.61,1473.49019396196
0.611,1473.48968270119
0.612,1473.48917134176
0.613,1473.48865988994
0.614,1473.48814835196
0.615,1473.48763673399
0.616,1473.48712504212
0.617,1473.4866132824
0.618,1473.48610146083
0.619,1473.48558958332
0.62,1473.48507765576
0.621,1473.48456568395
0.622,1473.48405367365
0.623,1473.48354163058
0.624,1473.48302956037
0.625,1473.48251746861
0.626,1473.48200536086
0.627,1473.48149324258
0.628,1473.48098111921
0.629,1473.48046899614
0.63,1473.47995687868
0.631,1473.4794447721
0.632,1473.47893268164
0.633,1473.47842061245
0.634,1473.47790856967
0.635,1473.47739655835
0.636,1473.47688458353
0.637,1473.47637265016
0.638,1473.47586076317
0.639,1473.47534892743
0.64,1473.47483714777
0.641,1473.47432542897
0.642,1473.47381377574
0.643,1473.47330219279
0.644,1473.47279068473
0.645,1473.47227925617
0.646,1473.47176791164
0.647,1473.47125665565
0.648,1473.47074549265
0.649,1473.47023442705
0.65,1473.46972346321
0.651,1473.46921260546
0.652,1473.46870185807
0.653,1473.46819122529
0.654,1473.4676807113
0.655,1473.46717032025
0.656,1473.46666005626
0.657,1473.4661499234
0.658,1473.46563992568
0.659,1473.46513006709
0.66,1473.46462035158
0.661,1473.46411078306
0.662,1473.46360136539
0.663,1473.4630921024
0.664,1473.46258299787
0.665,1473.46207405555
0.666,1473.46156527916
0.667,1473.46105667236
0.668,1473.46054823879
0.669,1473.46003998205
0.67,1473.4595319057
0.671,1473.45902401326
0.672,1473.45851630822
0.673,1473.45800879403
0.674,1473.45750147411
0.675,1473.45699435183
0.676,1473.45648743055
0.677,1473.45598071357
0.678,1473.45547420417
0.679,1473.45496790559
0.68,1473.45446182103
0.681,1473.45395595368
0.682,1473.45345030668
0.683000000000001,1473.45294488313
0.684000000000001,1473.4524396861
0.685000000000001,1473.45193471865
0.686000000000001,1473.45142998377
0.687000000000001,1473.45092548446
0.688000000000001,1473.45042122366
0.689000000000001,1473.44991720428
0.690000000000001,1473.44941342921
0.691000000000001,1473.4489099013
0.692000000000001,1473.44840662339
0.693000000000001,1473.44790359825
0.694000000000001,1473.44740082866
0.695000000000001,1473.44689831736
0.696000000000001,1473.44639606704
0.697000000000001,1473.44589408037
0.698000000000001,1473.44539236002
0.699000000000001,1473.4448909086
0.700000000000001,1473.44438972869
0.701000000000001,1473.44388882285
0.702000000000001,1473.44338819363
0.703000000000001,1473.44288784353
0.704000000000001,1473.44238777502
0.705000000000001,1473.44188799057
0.706000000000001,1473.44138849258
0.707000000000001,1473.44088928347
0.708000000000001,1473.4403903656
0.709000000000001,1473.43989174132
0.710000000000001,1473.43939341294
0.711000000000001,1473.43889538277
0.712000000000001,1473.43839765307
0.713000000000001,1473.43790022607
0.714000000000001,1473.43740310401
0.715000000000001,1473.43690628908
0.716000000000001,1473.43640978343
0.717000000000001,1473.43591358922
0.718000000000001,1473.43541770857
0.719000000000001,1473.43492214357
0.720000000000001,1473.43442689629
0.721000000000001,1473.43393196878
0.722000000000001,1473.43343736308
0.723000000000001,1473.43294308117
0.724000000000001,1473.43244912504
0.725000000000001,1473.43195549664
0.726000000000001,1473.43146219791
0.727000000000001,1473.43096923077
0.728000000000001,1473.43047659709
0.729000000000001,1473.42998429875
0.730000000000001,1473.42949233759
0.731000000000001,1473.42900071544
0.732000000000001,1473.4285094341
0.733000000000001,1473.42801849535
0.734000000000001,1473.42752790096
0.735000000000001,1473.42703765265
0.736000000000001,1473.42654775216
0.737000000000001,1473.42605820118
0.738000000000001,1473.42556900138
0.739000000000001,1473.42508015444
0.740000000000001,1473.42459166198
0.741000000000001,1473.42410352563
0.742000000000001,1473.42361574698
0.743000000000001,1473.42312832762
0.744000000000001,1473.4226412691
0.745000000000001,1473.42215457297
0.746000000000001,1473.42166824075
0.747000000000001,1473.42118227395
0.748000000000001,1473.42069667405
0.749000000000001,1473.42021144252
0.750000000000001,1473.41972658081
0.751000000000001,1473.41924209035
0.752000000000001,1473.41875797255
0.753000000000001,1473.41827422881
0.754000000000001,1473.41779086051
0.755000000000001,1473.41730786901
0.756000000000001,1473.41682525565
0.757000000000001,1473.41634302177
0.758000000000001,1473.41586116866
0.759000000000001,1473.41537969762
0.760000000000001,1473.41489860993
0.761000000000001,1473.41441790686
0.762000000000001,1473.41393758963
0.763000000000001,1473.41345765949
0.764000000000001,1473.41297811763
0.765000000000001,1473.41249896526
0.766000000000001,1473.41202020356
0.767000000000001,1473.4115418337
0.768000000000001,1473.41106385681
0.769000000000001,1473.41058627403
0.770000000000001,1473.41010908649
0.771000000000001,1473.40963229528
0.772000000000001,1473.4091559015
0.773000000000001,1473.40867990621
0.774000000000001,1473.40820431048
0.775000000000001,1473.40772911535
0.776000000000001,1473.40725432184
0.777000000000001,1473.40677993099
0.778000000000001,1473.40630594379
0.779000000000001,1473.40583236122
0.780000000000001,1473.40535918426
0.781000000000001,1473.40488641387
0.782000000000001,1473.40441405099
0.783000000000001,1473.40394209657
0.784000000000001,1473.40347055151
0.785000000000001,1473.40299941674
0.786000000000001,1473.40252869312
0.787000000000001,1473.40205838156
0.788000000000001,1473.40158848292
0.789000000000001,1473.40111899805
0.790000000000001,1473.40064992779
0.791000000000001,1473.40018127297
0.792000000000001,1473.39971303441
0.793000000000001,1473.39924521292
0.794000000000001,1473.39877780928
0.795000000000001,1473.39831082429
0.796000000000001,1473.39784425869
0.797000000000001,1473.39737811326
