"Physical Time: Physical Time (s)","Surface Average Rear Temp1 Monitor: Surface Average of Temperature (K)"
0.001,873.000000000046
0.002,873.000000000633
0.003,873.000000004506
0.004,873.000000022291
0.005,873.000000086184
0.006,873.000000277572
0.007,873.000000775099
0.008,873.00000192866
0.009,873.000004362001
0.01,873.000009102343
0.011,873.000017730746
0.012,873.00003254271
0.013,873.000056705634
0.014,873.000094398902
0.015,873.000150923177
0.016,873.000232768328
0.017,873.000347633011
0.018,873.000504393164
0.019,873.000713020769
0.02,873.000984457951
0.021,873.001330452742
0.022,873.001763368197
0.023,873.00229597204
0.024,873.002941218301
0.025,873.003712029606
0.026,873.004621088032
0.027,873.005680640972
0.028,873.006902326884
0.029,873.008297024252
0.03,873.009874729145
0.031,873.011644443633
0.032,873.013614114334
0.033,873.015790576299
0.034,873.018179525371
0.035,873.020785510683
0.036,873.023611944998
0.037,873.026661130382
0.038,873.02993429672
0.039,873.033431650638
0.04,873.03715243257
0.041,873.04109497988
0.042,873.045256794161
0.043,873.049634611083
0.044,873.054224471344
0.045,873.05902179154
0.046,873.064021433943
0.047,873.069217774385
0.048,873.074604766725
0.049,873.080176007646
0.05,873.085924793174
0.051,873.091844174932
0.052,873.097927011386
0.053,873.104166015587
0.054,873.110553799069
0.055,873.117082911935
0.056,873.123745879251
0.057,873.130535233875
0.058,873.1374435459
0.059,873.14446344886
0.06,873.151587662922
0.061,873.158809015224
0.062,873.166120457573
0.063,873.173515081692
0.064,873.1809861322
0.065,873.188527017523
0.066,873.196131318905
0.067,873.203792797691
0.068,873.211505401045
0.069,873.219263266258
0.07,873.227060723781
0.071,873.23489229913
0.0720000000000001,873.242752713766
0.0730000000000001,873.250636885094
0.0740000000000001,873.258539925657
0.0750000000000001,873.26645714164
0.0760000000000001,873.274384030775
0.0770000000000001,873.282316158163
0.0780000000000001,873.290249558462
0.0790000000000001,873.298180265469
0.0800000000000001,873.306104504469
0.0810000000000001,873.31401867941
0.0820000000000001,873.321919366362
0.0830000000000001,873.329803308184
0.0840000000000001,873.33766740954
0.0850000000000001,873.345508732026
0.0860000000000001,873.353324489324
0.0870000000000001,873.361112042367
0.0880000000000001,873.368868894509
0.0890000000000001,873.376592686716
0.0900000000000001,873.3842811928
0.0910000000000001,873.391932314685
0.0920000000000001,873.399544077745
0.0930000000000001,873.407114626198
0.0940000000000001,873.414642218596
0.0950000000000001,873.422125223385
0.0960000000000001,873.429562114573
0.0970000000000001,873.436951467485
0.0980000000000001,873.444291954637
0.0990000000000001,873.451582341702
0.1,873.458821483598
0.101,873.466008320684
0.102,873.473141875069
0.103,873.480221247035
0.104,873.487245611577
0.105,873.494214215055
0.106,873.501126371956
0.107,873.50798146177
0.108,873.514778925981
0.109,873.521518265154
0.11,873.528199036145
0.111,873.534820849397
0.112,873.541383366355
0.113,873.547886296967
0.114,873.55432939729
0.115,873.560712467192
0.116,873.567035348132
0.117,873.573297921048
0.118,873.579500104321
0.119,873.585641851818
0.12,873.591723151029
0.121,873.597744021272
0.122,873.603704511979
0.123,873.60960470105
0.124,873.615444693285
0.125,873.621224618877
0.126,873.626944631973
0.127,873.632604909301
0.128,873.638205648855
0.129,873.643747068634
0.13,873.649229405448
0.131,873.654652913769
0.132,873.660017864636
0.133,873.665324544613
0.134,873.670573254789
0.135,873.675764309833
0.136,873.680898037082
0.137,873.68597477568
0.138,873.690994875751
0.139,873.69595869762
0.14,873.700866611059
0.141,873.705718994578
0.142,873.710516234748
0.143,873.715258725554
0.144,873.71994686778
0.145,873.724581068429
0.146,873.729161363602
0.147,873.733688662597
0.148,873.73816333246
0.149,873.742585776581
0.15,873.746956413275
0.151,873.751275669297
0.152,873.755543976893
0.153,873.759761772224
0.154,873.763929494388
0.155,873.768047584769
0.156,873.77211648652
0.157,873.776136644151
0.158,873.780108503162
0.159,873.784032509725
0.16,873.787909110386
0.161,873.791738751798
0.162,873.795521880466
0.163,873.799258942514
0.164,873.802950383469
0.165,873.806596648051
0.166,873.810198179984
0.167,873.813755421815
0.168,873.817268814745
0.169,873.820738798471
0.17,873.824165811037
0.171,873.827550288695
0.172,873.830892665776
0.173,873.834193374565
0.174,873.837452845189
0.175,873.840671505513
0.176,873.843849781037
0.177,873.846988094805
0.178,873.850086867321
0.179,873.853146516466
0.18,873.856167457429
0.181,873.859150102632
0.182,873.862094861675
0.183,873.865002141272
0.184,873.867872345199
0.185,873.870705874247
0.186,873.873503126179
0.187,873.876264495683
0.188,873.878990374344
0.189,873.881681150606
0.19,873.884337209744
0.191,873.88695893384
0.192,873.889546701754
0.193,873.892100889114
0.194,873.89462186829
0.195,873.897110008385
0.196,873.899565675221
0.197,873.901989231328
0.198,873.904381035941
0.199,873.906741444993
0.2,873.90907081111
0.201,873.911369483613
0.202,873.913637808516
0.203,873.915876128531
0.204,873.918084783069
0.205,873.92026410825
0.206,873.922414436904
0.207,873.924536098584
0.208,873.926629419575
0.209,873.928694722902
0.21,873.930732328344
0.211,873.932742552447
0.212,873.934725708538
0.213,873.936682106737
0.214,873.938612053978
0.215,873.94051585402
0.216,873.942393807467
0.217,873.944246211786
0.218,873.946073361326
0.219,873.947875547335
0.22,873.94965305798
0.221,873.951406178371
0.222,873.953135190579
0.223,873.954840373654
0.224,873.956522003653
0.225,873.958180353657
0.226,873.959815693797
0.227,873.961428291273
0.228,873.96301841038
0.229,873.964586312527
0.23,873.966132256268
0.231,873.967656497315
0.232,873.969159288573
0.233,873.970640880155
0.234,873.97210151941
0.235,873.973541450948
0.236,873.974960916661
0.237,873.976360155749
0.238,873.977739404747
0.239,873.979098897544
0.24,873.980438865413
0.241,873.981759537031
0.242,873.983061138506
0.243,873.984343388414
0.244,873.985607141074
0.245,873.986852557395
0.246,873.988079828359
0.247,873.989289154143
0.248,873.990480738034
0.249,873.991654783812
0.25,873.992811494501
0.251,873.993951071738
0.252,873.995073715445
0.253,873.996179623648
0.254,873.997268992379
0.255,873.998342015622
0.256,873.999398885289
0.257,874.000439791199
0.258,874.001464921083
0.259,874.002474460582
0.26,874.00346859326
0.261,874.004447500616
0.262,874.005411362093
0.263,874.006360355099
0.264,874.007294655023
0.265,874.008214435246
0.266,874.009119867169
0.267,874.010011120226
0.268,874.010888361903
0.269,874.01175175776
0.27,874.012601471447
0.271,874.013437664727
0.272,874.014260497492
0.273,874.015070127786
0.274,874.015866711822
0.275,874.016650404002
0.276,874.017421356938
0.277,874.01817972147
0.278,874.018925646684
0.279,874.019659279934
0.28,874.020380766858
0.281,874.0210902514
0.282,874.021787875826
0.283,874.022473780745
0.284,874.023148105123
0.285,874.023810986308
0.286,874.024462560043
0.287,874.025102960484
0.288,874.025732320223
0.289,874.026350770298
0.29,874.026958440216
0.291,874.027555457972
0.292,874.028141950057
0.293,874.028718041487
0.294,874.02928385581
0.295,874.029839515127
0.296,874.030385140109
0.297,874.030920850013
0.298,874.031446762696
0.299,874.031962994633
0.3,874.032469660933
0.301,874.032966875355
0.302,874.033454750321
0.303,874.033933396933
0.304,874.03440292499
0.305,874.034863442999
0.306,874.035315058195
0.307,874.03575787655
0.308,874.036192002793
0.309,874.036617540419
0.31,874.037034591709
0.311,874.03744325774
0.312,874.0378436384
0.313,874.038235832402
0.314,874.038619937297
0.315,874.038996049491
0.316,874.039364264251
0.317,874.039724675727
0.318,874.040077376957
0.319,874.040422459885
0.32,874.040760015374
0.321,874.041090133216
0.322,874.041412902144
0.323,874.041728409846
0.324,874.042036742979
0.325,874.042337987178
0.326,874.042632227067
0.327,874.042919546278
0.328,874.04320002745
0.329,874.043473752256
0.33,874.043740801399
0.331,874.044001254635
0.332,874.04425519078
0.333,874.044502687718
0.334,874.044743822416
0.335,874.044978670936
0.336,874.045207308436
0.337,874.045429809196
0.338,874.045646246614
0.339,874.045856693224
0.34,874.046061220707
0.341,874.046259899894
0.342,874.046452800783
0.343,874.046639992545
0.344,874.046821543536
0.345,874.046997521305
0.346,874.047167992604
0.347,874.047333023395
0.348,874.047492678866
0.349,874.047647023433
0.35,874.04779612075
0.351,874.047940033724
0.352,874.048078824516
0.353,874.048212554555
0.354,874.048341284543
0.355,874.048465074468
0.356,874.048583983609
0.357,874.048698070542
0.358,874.048807393157
0.359,874.04891169545
0.36,874.049011410131
0.361,874.049106569795
0.362,874.049197218172
0.363,874.049283403313
0.364,874.049365175198
0.365,874.049442584558
0.366,874.049515682262
0.367,874.049584519012
0.368,874.049649145177
0.369,874.04970961071
0.37,874.049765965092
0.371,874.049818257319
0.372,874.049866535871
0.373,874.049910848718
0.374,874.049951243305
0.375,874.049987766557
0.376,874.050020464876
0.377,874.050049384146
0.378,874.050074569728
0.379,874.050096066473
0.38,874.050113918717
0.381,874.050128170291
0.382,874.050138864517
0.383,874.050146044223
0.384,874.050149751739
0.385,874.050150028904
0.386,874.050146917073
0.387,874.05014045712
0.388,874.050130689442
0.389,874.050117653964
0.39,874.050101390148
0.391,874.05008193699
0.392,874.050059333034
0.393,874.050033616369
0.394,874.05000482464
0.395,874.049972995048
0.396,874.049938164361
0.397,874.049900368911
0.398,874.049859644605
0.399,874.049816026928
0.4,874.049769550945
0.401,874.049720251314
0.402,874.049668162277
0.403,874.049613317681
0.404,874.049555750967
0.405,874.049495495186
0.406,874.049432582999
0.407,874.04936704668
0.408,874.049298918126
0.409,874.049228228853
0.41,874.049155010009
0.411,874.049079292373
0.412,874.04900110636
0.413,874.048920482028
0.414,874.048837449078
0.415,874.048752036863
0.416,874.048664274386
0.417,874.04857419031
0.418,874.048481812958
0.419,874.048387170322
0.42,874.048290290057
0.421,874.048191199499
0.422,874.048089925654
0.423,874.047986495214
0.424,874.047880934553
0.425,874.047773269735
0.426,874.047663526513
0.427,874.047551730342
0.428,874.047437906369
0.429,874.047322079449
0.43,874.04720427414
0.431,874.047084514713
0.432,874.046962825149
0.433,874.046839229148
0.434,874.046713750129
0.435,874.046586411234
0.436,874.046457235331
0.437,874.046326245021
0.438,874.046193462633
0.439,874.046058910236
0.44,874.045922609637
0.441,874.045784582385
0.442,874.045644849772
0.443,874.045503432845
0.444,874.045360352396
0.445,874.045215628973
0.446,874.045069282881
0.447,874.044921334187
0.448,874.044771802719
0.449,874.044620708071
0.45,874.044468069604
0.451,874.044313906453
0.452,874.044158237525
0.453,874.044001081505
0.454,874.043842456855
0.455,874.04368238182
0.456,874.043520874429
0.457,874.043357952499
0.458,874.043193633636
0.459,874.043027935236
0.46,874.042860874492
0.461,874.042692468391
0.462,874.042522733723
0.463,874.042351687077
0.464,874.042179344845
0.465,874.042005723228
0.466,874.041830838233
0.467,874.041654705679
0.468,874.041477341199
0.469,874.041298760238
0.47,874.041118978063
0.471,874.040938009755
0.472,874.040755870223
0.473,874.040572574194
0.474,874.040388136224
0.475,874.040202570697
0.476,874.040015891825
0.477,874.039828113655
0.478,874.039639250065
0.479,874.03944931477
0.48,874.039258321323
0.481,874.039066283117
0.482,874.038873213387
0.483,874.03867912521
0.484,874.038484031509
0.485,874.038287945055
0.486,874.038090878469
0.487,874.037892844218
0.488,874.037693854628
0.489,874.037493921874
0.49,874.037293057991
0.491,874.037091274867
0.492,874.036888584256
0.493,874.036684997766
0.494,874.036480526873
0.495,874.036275182914
0.496,874.036068977095
0.497,874.035861920486
0.498,874.035654024029
0.499,874.035445298534
0.5,874.035235754686
0.501,874.035025403041
0.502,874.034814254033
0.503,874.034602317969
0.504,874.034389605037
0.505,874.034176125304
0.506,874.033961888717
0.507,874.033746905105
0.508,874.033531184183
0.509,874.033314735548
0.51,874.033097568685
0.511,874.032879692969
0.512,874.032661117661
0.513,874.032441851914
0.514,874.032221904769
0.515,874.032001285168
0.516,874.031780001939
0.517,874.031558063809
0.518,874.031335479403
0.519,874.031112257243
0.52,874.030888405748
0.521,874.030663933241
0.522,874.030438847943
0.523,874.030213157981
0.524,874.029986871383
0.525,874.029759996085
0.526,874.029532539925
0.527,874.029304510652
0.528,874.029075915922
0.529,874.0288467633
0.53,874.028617060261
0.531,874.028386814192
0.532,874.028156032395
0.533,874.027924722082
0.534,874.027692890381
0.535,874.027460544335
0.536,874.027227690905
0.537,874.026994336969
0.538,874.026760489323
0.539,874.026526154683
0.54,874.026291339686
0.541,874.02605605089
0.542,874.025820294773
0.543,874.025584077742
0.544,874.025347406122
0.545,874.025110286166
0.546,874.024872724054
0.547,874.024634725891
0.548,874.02439629771
0.549,874.024157445472
0.55,874.02391817507
0.551,874.023678492323
0.552,874.023438402986
0.553,874.023197912742
0.554,874.022957027207
0.555,874.022715751933
0.556,874.022474092404
0.557,874.02223205404
0.558,874.021989642195
0.559,874.021746862162
0.56,874.021503719172
0.561,874.02126021839
0.562,874.021016364923
0.563,874.020772163816
0.564,874.020527620055
0.565,874.020282738568
0.566,874.020037524222
0.567,874.019791981827
0.568,874.019546116138
0.569,874.019299931853
0.57,874.01905343361
0.571,874.018806625999
0.572,874.018559513551
0.573,874.018312100745
0.574,874.018064392004
0.575,874.017816391704
0.576,874.017568104164
0.577,874.017319533654
0.578,874.017070684394
0.579,874.016821560552
0.58,874.016572166248
0.581,874.016322505553
0.582,874.016072582489
0.583,874.015822401032
0.584,874.015571965107
0.585,874.015321278598
0.586,874.015070345338
0.587,874.014819169117
0.588,874.014567753679
0.589,874.014316102726
0.59,874.014064219911
0.591,874.013812108849
0.592,874.013559773109
0.593,874.013307216219
0.594,874.013054441664
0.595,874.012801452889
0.596,874.012548253297
0.597,874.01229484625
0.598,874.012041235072
0.599,874.011787423046
0.6,874.011533413418
0.601,874.011279209391
0.602,874.011024814136
0.603,874.010770230781
0.604,874.010515462421
0.605,874.010260512111
0.606,874.010005382871
0.607,874.009750077686
0.608,874.009494599504
0.609,874.009238951239
0.61,874.008983135771
0.611,874.008727155942
0.612,874.008471014566
0.613,874.008214714419
0.614,874.007958258245
0.615,874.007701648757
0.616,874.007444888635
0.617,874.007187980526
0.618,874.006930927046
0.619,874.006673730781
0.62,874.006416394285
0.621,874.006158920082
0.622,874.005901310666
0.623,874.005643568501
0.624,874.005385696023
0.625,874.005127695638
0.626,874.004869569723
0.627,874.004611320626
0.628,874.004352950669
0.629,874.004094462147
0.63,874.003835857324
0.631,874.00357713844
0.632,874.003318307708
0.633,874.003059367313
0.634,874.002800319416
0.635,874.002541166152
0.636,874.002281909629
0.637,874.002022551931
0.638,874.001763095118
0.639,874.001503541223
0.64,874.001243892256
0.641,874.000984150205
0.642,874.000724317032
0.643,874.000464394675
0.644,874.000204385052
0.645,873.999944290054
0.646,873.999684111554
0.647,873.999423851398
0.648,873.999163511414
0.649,873.998903093406
0.65,873.998642599157
0.651,873.998382030427
0.652,873.998121388959
0.653,873.997860676471
0.654,873.997599894664
0.655,873.997339045216
0.656,873.997078129786
0.657,873.996817150013
0.658,873.996556107517
0.659,873.996295003898
0.66,873.996033840737
0.661,873.995772619597
0.662,873.99551134202
0.663,873.995250009532
0.664,873.99498862364
0.665,873.994727185831
0.666,873.994465697578
0.667,873.994204160335
0.668,873.993942575536
0.669,873.993680944601
0.67,873.993419268931
0.671,873.993157549912
0.672,873.992895788911
0.673,873.992633987282
0.674,873.99237214636
0.675,873.992110267464
0.676,873.9918483519
0.677,873.991586400955
0.678,873.991324415902
0.679,873.991062398
0.68,873.990800348491
0.681,873.990538268601
0.682,873.990276159546
0.683000000000001,873.990014022522
0.684000000000001,873.989751858716
0.685000000000001,873.989489669294
0.686000000000001,873.989227455415
0.687000000000001,873.98896521822
0.688000000000001,873.988702958837
0.689000000000001,873.988440678381
0.690000000000001,873.988178377953
0.691000000000001,873.987916058642
0.692000000000001,873.987653721522
0.693000000000001,873.987391367655
0.694000000000001,873.987128998092
0.695000000000001,873.986866613867
0.696000000000001,873.986604216006
0.697000000000001,873.986341805521
0.698000000000001,873.986079383411
0.699000000000001,873.985816950664
0.700000000000001,873.985554508256
0.701000000000001,873.985292057151
0.702000000000001,873.985029598302
0.703000000000001,873.984767132648
0.704000000000001,873.98450466112
0.705000000000001,873.984242184637
0.706000000000001,873.983979704105
0.707000000000001,873.983717220422
0.708000000000001,873.983454734472
0.709000000000001,873.983192247131
0.710000000000001,873.982929759263
0.711000000000001,873.982667271722
0.712000000000001,873.982404785352
0.713000000000001,873.982142300985
0.714000000000001,873.981879819446
0.715000000000001,873.981617341547
0.716000000000001,873.981354868093
0.717000000000001,873.981092399876
0.718000000000001,873.980829937682
0.719000000000001,873.980567482285
0.720000000000001,873.980305034451
0.721000000000001,873.980042594935
0.722000000000001,873.979780164485
0.723000000000001,873.979517743837
0.724000000000001,873.979255333723
0.725000000000001,873.978992934861
0.726000000000001,873.978730547963
0.727000000000001,873.978468173731
0.728000000000001,873.978205812861
0.729000000000001,873.977943466037
0.730000000000001,873.977681133938
0.731000000000001,873.977418817232
0.732000000000001,873.977156516581
0.733000000000001,873.976894232638
0.734000000000001,873.976631966047
0.735000000000001,873.976369717447
0.736000000000001,873.976107487467
0.737000000000001,873.975845276728
0.738000000000001,873.975583085846
0.739000000000001,873.975320915426
0.740000000000001,873.975058766069
0.741000000000001,873.974796638366
0.742000000000001,873.974534532903
0.743000000000001,873.974272450256
0.744000000000001,873.974010390999
0.745000000000001,873.973748355691
0.746000000000001,873.973486344894
0.747000000000001,873.973224359154
0.748000000000001,873.972962399018
0.749000000000001,873.972700465019
0.750000000000001,873.97243855769
0.751000000000001,873.972176677554
0.752000000000001,873.971914825127
0.753000000000001,873.971653000921
0.754000000000001,873.97139120544
0.755000000000001,873.971129439184
0.756000000000001,873.970867702643
0.757000000000001,873.970605996306
0.758000000000001,873.970344320651
0.759000000000001,873.970082676154
0.760000000000001,873.969821063283
0.761000000000001,873.9695594825
0.762000000000001,873.969297934264
0.763000000000001,873.969036419026
0.764000000000001,873.968774937231
0.765000000000001,873.96851348932
0.766000000000001,873.968252075729
0.767000000000001,873.967990696886
0.768000000000001,873.967729353216
0.769000000000001,873.967468045139
0.770000000000001,873.967206773069
0.771000000000001,873.966945537414
0.772000000000001,873.966684338577
0.773000000000001,873.966423176959
0.774000000000001,873.966162052952
0.775000000000001,873.965900966947
0.776000000000001,873.965639919326
0.777000000000001,873.96537891047
0.778000000000001,873.965117940753
0.779000000000001,873.964857010545
0.780000000000001,873.964596120212
0.781000000000001,873.964335270114
0.782000000000001,873.964074460608
0.783000000000001,873.963813692047
0.784000000000001,873.963552964777
0.785000000000001,873.963292279142
0.786000000000001,873.963031635481
0.787000000000001,873.962771034129
0.788000000000001,873.962510475416
0.789000000000001,873.962249959669
0.790000000000001,873.96198948721
0.791000000000001,873.961729058357
0.792000000000001,873.961468673426
0.793000000000001,873.961208332726
0.794000000000001,873.960948036564
0.795000000000001,873.960687785243
0.796000000000001,873.960427579061
