"Physical Time: Physical Time (s)","Surface Average Rear Temp1 Monitor: Surface Average of Temperature (K)"
0.001,873.00000000004
0.002,873.000000000562
0.003,873.000000004087
0.004,873.000000020564
0.005,873.000000080678
0.006,873.000000263148
0.007,873.000000742908
0.008,873.000001866052
0.009,873.000004254646
0.01,873.000008939922
0.011,873.00001751743
0.012,873.000032313162
0.013,873.000056546548
0.014,873.000094475313
0.015,873.000151508138
0.016,873.000234274088
0.017,873.000350641438
0.018,873.000509683495
0.019,873.000721592849
0.02,873.000997549413
0.021,873.00134955023
0.022,873.001790210854
0.023,873.002332549462
0.024,873.002989759836
0.025,873.003774990511
0.026,873.004701130763
0.027,873.005780613163
0.028,873.007025237204
0.029,873.008446017133
0.03,873.01005305585
0.031,873.011855445351
0.032,873.013861193233
0.033,873.016077173923
0.034,873.018509108332
0.035,873.02116154153
0.036,873.024037871737
0.037,873.0271403737
0.038,873.030470238902
0.039,873.034027626447
0.04,873.037811722077
0.041,873.041820803038
0.042,873.046052306989
0.043,873.050502903192
0.044,873.055168564662
0.045,873.060044640026
0.046,873.065125924127
0.047,873.070406726566
0.048,873.07588093756
0.049,873.081542090656
0.05,873.087383421923
0.051,873.093397925452
0.052,873.099578405784
0.053,873.10591752423
0.054,873.112407841435
0.055,873.119041860564
0.056,873.125812062571
0.057,873.132710938665
0.058,873.139731019539
0.059,873.146864901431
0.06,873.154105269128
0.061,873.161444916171
0.062,873.168876762363
0.063,873.176393868865
0.064,873.183989451011
0.065,873.191656889082
0.066,873.199389737155
0.067,873.207181730265
0.068,873.215026789994
0.069,873.222919028657
0.07,873.230852752241
0.071,873.238822462214
0.0720000000000001,873.246822856302
0.0730000000000001,873.254848828436
0.0740000000000001,873.262895467863
0.0750000000000001,873.270958057604
0.0760000000000001,873.279032072288
0.0770000000000001,873.287113175504
0.0780000000000001,873.29519721668
0.0790000000000001,873.303280227601
0.0800000000000001,873.311358418606
0.0810000000000001,873.319428174528
0.0820000000000001,873.327486050419
0.0830000000000001,873.335528767094
0.0840000000000001,873.343553206577
0.0850000000000001,873.351556407418
0.0860000000000001,873.359535559962
0.0870000000000001,873.367488001584
0.0880000000000001,873.375411211899
0.0890000000000001,873.383302702133
0.0900000000000001,873.391160350519
0.0910000000000001,873.398982030343
0.0920000000000001,873.406765737045
0.0930000000000001,873.414509586571
0.0940000000000001,873.422211810586
0.0950000000000001,873.429870751597
0.0960000000000001,873.437484858243
0.0970000000000001,873.445052680851
0.0980000000000001,873.452572867179
0.0990000000000001,873.460044158331
0.1,873.467465384789
0.101,873.474835462611
0.102,873.482153389726
0.103,873.489418242365
0.104,873.496629171601
0.105,873.50378540001
0.106,873.510886218443
0.107,873.517930982903
0.108,873.524919111563
0.109,873.53185008184
0.11,873.538723427641
0.111,873.545538736636
0.112,873.552295647707
0.113,873.558993848449
0.114,873.565633072778
0.115,873.572213098642
0.116,873.578733745824
0.117,873.585194873812
0.118,873.591596379776
0.119,873.597938196635
0.12,873.604220291166
0.121,873.610442662243
0.122,873.616605339103
0.123,873.622708379732
0.124,873.628751869269
0.125,873.634735918512
0.126,873.640660662504
0.127,873.646526259122
0.128,873.652332887797
0.129,873.658080748231
0.13,873.663770059232
0.131,873.669401057521
0.132,873.674973996689
0.133,873.680489146108
0.134,873.685946789977
0.135,873.691347226331
0.136,873.696690766154
0.137,873.701977732518
0.138,873.707208459746
0.139,873.712383292631
0.14,873.717502585696
0.141,873.722566702455
0.142,873.727576014759
0.143,873.732530902144
0.144,873.737431751199
0.145,873.742278954998
0.146,873.747072912534
0.147,873.751814028189
0.148,873.756502711232
0.149,873.761139375338
0.15,873.765724438131
0.151,873.770258320765
0.152,873.774741447479
0.153,873.779174245259
0.154,873.783557143415
0.155,873.787890573275
0.156,873.792174967818
0.157,873.796410761376
0.158,873.800598389339
0.159,873.804738287864
0.16,873.808830893606
0.161,873.812876643471
0.162,873.816875974375
0.163,873.820829323021
0.164,873.824737125673
0.165,873.82859981797
0.166,873.832417834732
0.167,873.83619160977
0.168,873.839921318672
0.169,873.843607704518
0.17,873.847251186416
0.171,873.850852179232
0.172,873.854411099968
0.173,873.857928367102
0.174,873.861404399291
0.175,873.864839614465
0.176,873.868234429182
0.177,873.871589258237
0.178,873.874904514378
0.179,873.878180608124
0.18,873.881417947598
0.181,873.88461693843
0.182,873.887777983644
0.183,873.890901483599
0.184,873.893987835901
0.185,873.897037435348
0.186,873.90005067387
0.187,873.90302794051
0.188,873.905969621324
0.189,873.908876099411
0.19,873.911747754816
0.191,873.914584964552
0.192,873.917388102539
0.193,873.92015753959
0.194,873.9228936434
0.195,873.925596778508
0.196,873.92826730631
0.197,873.930905585026
0.198,873.933511969692
0.199,873.93608681216
0.2,873.938630461096
0.201,873.941143261957
0.202,873.943625557012
0.203,873.946077685321
0.204,873.948499982762
0.205,873.950892782012
0.206,873.95325641256
0.207,873.955591200715
0.208,873.957897469617
0.209,873.960175539234
0.21,873.962425726378
0.211,873.964648344721
0.212,873.966843704801
0.213,873.969012114044
0.214,873.971153876762
0.215,873.973269294178
0.216,873.975358664442
0.217,873.977422282647
0.218,873.979460440844
0.219,873.981473428052
0.22,873.983461530304
0.221,873.985425030622
0.222,873.98736420908
0.223,873.98927934279
0.224,873.991170705949
0.225,873.99303856983
0.226,873.994883202838
0.227,873.996704870497
0.228,873.998503835503
0.229,874.000280357717
0.23,874.002034694206
0.231,874.003767099261
0.232,874.005477824413
0.233,874.007167118468
0.234,874.008835227518
0.235,874.010482394968
0.236,874.012108861567
0.237,874.013714865414
0.238,874.015300641996
0.239,874.016866424212
0.24,874.018412442381
0.241,874.019938924281
0.242,874.021446095168
0.243,874.022934177792
0.244,874.024403392435
0.245,874.025853956927
0.246,874.027286086655
0.247,874.028699994617
0.248,874.030095891414
0.249,874.031473985298
0.25,874.03283448218
0.251,874.034177585657
0.252,874.035503497033
0.253,874.03681241536
0.254,874.038104537422
0.255,874.039380057802
0.256,874.04063916887
0.257,874.041882060829
0.258,874.043108921718
0.259,874.044319937454
0.26,874.045515291834
0.261,874.046695166577
0.262,874.047859353747
0.263,874.049008498719
0.264,874.050142758222
0.265,874.051262287056
0.266,874.052367244018
0.267,874.053457790543
0.268,874.054534089028
0.269,874.055596301746
0.27,874.05664459017
0.271,874.057679114599
0.272,874.058700033925
0.273,874.059707505513
0.274,874.060701685119
0.275,874.061682726849
0.276,874.062650783151
0.277,874.063606004797
0.278,874.064548540875
0.279,874.065478538814
0.28,874.066396144381
0.281,874.067301501692
0.282,874.06819475323
0.283,874.069076039851
0.284,874.06994550081
0.285,874.070803273759
0.286,874.071649494792
0.287,874.072484298423
0.288,874.073307817637
0.289,874.074120183882
0.29,874.074921527088
0.291,874.075711975706
0.292,874.076491656697
0.293,874.077260695551
0.294,874.078019216326
0.295,874.07876734164
0.296,874.079505192691
0.297,874.080232889282
0.298,874.080950549831
0.299,874.081658291387
0.3,874.082356229641
0.301,874.083044478944
0.302,874.083723152328
0.303,874.084392361518
0.304,874.085052216934
0.305,874.085702827731
0.306,874.086344301789
0.307,874.086976745738
0.308,874.087600264969
0.309,874.088214963659
0.31,874.088820944771
0.311,874.089418310069
0.312,874.090007160147
0.313,874.090587594416
0.314,874.091159711149
0.315,874.091723607463
0.316,874.092279379359
0.317,874.092827121712
0.318,874.093366928304
0.319,874.093898891815
0.32,874.094423103863
0.321,874.094939654992
0.322,874.095448634687
0.323,874.095950131413
0.324,874.096444232586
0.325,874.096931024607
0.326,874.097410592885
0.327,874.097883021826
0.328,874.098348394856
0.329,874.098806794427
0.33,874.099258302038
0.331,874.099702998233
0.332,874.100140962622
0.333,874.10057227389
0.334,874.100997009805
0.335,874.101415247221
0.336,874.10182706211
0.337,874.102232529556
0.338,874.102631723762
0.339,874.103024718073
0.34,874.103411584977
0.341,874.103792396122
0.342,874.10416722232
0.343,874.10453613355
0.344,874.104899198985
0.345,874.105256486992
0.346,874.105608065136
0.347,874.105954000199
0.348,874.106294358186
0.349,874.106629204329
0.35,874.106958603099
0.351,874.107282618218
0.352,874.107601312672
0.353,874.107914748699
0.354,874.108222987823
0.355,874.108526090849
0.356,874.108824117865
0.357,874.109117128271
0.358,874.109405180766
0.359,874.109688333366
0.36,874.109966643413
0.361,874.11024016758
0.362,874.110508961878
0.363,874.110773081671
0.364,874.111032581663
0.365,874.111287515938
0.366,874.111537937933
0.367,874.11178390048
0.368,874.112024986521
0.369,874.112261803284
0.37,874.112494380528
0.371,874.112722749626
0.372,874.112946947639
0.373,874.113167015583
0.374,874.113382996731
0.375,874.113594935533
0.376,874.113802876965
0.377,874.114006866152
0.378,874.114206948127
0.379,874.114403167689
0.38,874.114595569331
0.381,874.11478419717
0.382,874.114969094914
0.383,874.115150305853
0.384,874.115327872835
0.385,874.115501838252
0.386,874.115672244051
0.387,874.115839131717
0.388,874.116002542279
0.389,874.116162516318
0.39,874.116319093951
0.391,874.116472314843
0.392,874.11662221822
0.393,874.116768842855
0.394,874.11691222708
0.395,874.117052408788
0.396,874.117189425445
0.397,874.11732331408
0.398,874.117454111298
0.399,874.117581853282
0.4,874.117706575802
0.401,874.117828314206
0.402,874.117947103449
0.403,874.118062978066
0.404,874.118175972205
0.405,874.118286119608
0.406,874.118393453633
0.407,874.118498007249
0.408,874.118599813043
0.409,874.118698903219
0.41,874.118795309618
0.411,874.118889063699
0.412,874.118980196567
0.413,874.119068738958
0.414,874.119154721247
0.415,874.119238173468
0.416,874.119319125296
0.417,874.119397606065
0.418,874.119473644761
0.419,874.119547270041
0.42,874.119618510227
0.421,874.119687393307
0.422,874.119753946946
0.423,874.119818198484
0.424,874.119880174947
0.425,874.119939903042
0.426,874.119997409164
0.427,874.120052719411
0.428,874.120105859566
0.429,874.120156855109
0.43,874.120205731236
0.431,874.120252512834
0.432,874.120297224511
0.433,874.12033989059
0.434,874.1203805351
0.435,874.120419181796
0.436,874.120455854157
0.437,874.120490575379
0.438,874.120523368406
0.439,874.120554255899
0.44,874.120583260255
0.441,874.120610403618
0.442,874.120635707873
0.443,874.120659194646
0.444,874.120680885308
0.445,874.120700800982
0.446,874.120718962556
0.447,874.120735390655
0.448,874.120750105686
0.449,874.120763127794
0.45,874.120774476908
0.451,874.120784172719
0.452,874.12079223468
0.453,874.120798682027
0.454,874.120803533775
0.455,874.120806808705
0.456,874.120808525385
0.457,874.120808702168
0.458,874.120807357192
0.459,874.12080450838
0.46,874.120800173453
0.461,874.120794369921
0.462,874.120787115088
0.463,874.120778426056
0.464,874.120768319736
0.465,874.120756812829
0.466,874.120743921851
0.467,874.120729663123
0.468,874.120714052774
0.469,874.120697106742
0.47,874.120678840792
0.471,874.120659270486
0.472,874.120638411218
0.473,874.120616278201
0.474,874.120592886468
0.475,874.120568250873
0.476,874.120542386109
0.477,874.120515306679
0.478,874.120487026937
0.479,874.120457561054
0.48,874.120426923044
0.481,874.120395126756
0.482,874.120362185873
0.483,874.120328113932
0.484,874.12029292429
0.485,874.120256630166
0.486,874.120219244622
0.487,874.12018078056
0.488,874.120141250738
0.489,874.120100667767
0.49,874.120059044107
0.491,874.120016392067
0.492,874.11997272383
0.493,874.119928051413
0.494,874.119882386711
0.495,874.119835741483
0.496,874.119788127327
0.497,874.119739555735
0.498,874.119690038044
0.499,874.119639585468
0.5,874.11958820909
0.501,874.11953591986
0.502,874.119482728605
0.503,874.119428646017
0.504,874.119373682675
0.505,874.119317849031
0.506,874.119261155406
0.507,874.119203612011
0.508,874.119145228937
0.509,874.119086016153
0.51,874.119025983513
0.511,874.11896514076
0.512,874.118903497515
0.513,874.118841063294
0.514,874.118777847503
0.515,874.11871385943
0.516,874.118649108263
0.517,874.11858360308
0.518,874.118517352853
0.519,874.118450366448
0.52,874.118382652629
0.521,874.118314220057
0.522,874.118245077291
0.523,874.118175232798
0.524,874.118104694933
0.525,874.118033471963
0.526,874.11796157206
0.527,874.117889003291
0.528,874.117815773638
0.529,874.117741890986
0.53,874.117667363126
0.531,874.117592197764
0.532,874.117516402512
0.533,874.117439984893
0.534,874.117362952346
0.535,874.117285312212
0.536,874.11720707177
0.537,874.117128238186
0.538,874.117048818561
0.539,874.116968819907
0.54,874.116888249153
0.541,874.116807113149
0.542,874.116725418671
0.543,874.116643172401
0.544,874.11656038096
0.545,874.116477050881
0.546,874.116393188621
0.547,874.116308800565
0.548,874.116223893031
0.549,874.116138472241
0.55,874.11605254437
0.551,874.115966115504
0.552,874.115879191668
0.553,874.11579177881
0.554,874.115703882806
0.555,874.115615509479
0.556,874.115526664562
0.557,874.115437353742
0.558,874.115347582625
0.559,874.115257356755
0.56,874.115166681623
0.561,874.115075562635
0.562,874.114984005149
0.563,874.11489201446
0.564,874.114799595791
0.565,874.114706754315
0.566,874.114613495142
0.567,874.114519823318
0.568,874.114425743837
0.569,874.114331261626
0.57,874.114236381559
0.571,874.114141108457
0.572,874.11404544708
0.573,874.113949402132
0.574,874.113852978267
0.575,874.113756180079
0.576,874.113659012113
0.577,874.113561478857
0.578,874.113463584747
0.579,874.113365334172
0.58,874.113266731465
0.581,874.113167780911
0.582,874.113068486741
0.583,874.112968853144
0.584,874.112868884254
0.585,874.112768584155
0.586,874.112667956895
0.587,874.112567006461
0.588,874.112465736798
0.589,874.112364151811
0.59,874.112262255349
0.591,874.112160051228
0.592,874.112057543204
0.593,874.111954735007
0.594,874.111851630313
0.595,874.111748232754
0.596,874.111644545926
0.597,874.111540573375
0.598,874.111436318616
0.599,874.11133178511
0.6,874.111226976292
0.601,874.111121895547
0.602,874.111016546222
0.603,874.110910931627
0.604,874.110805055033
0.605,874.110698919673
0.606,874.110592528739
0.607,874.110485885389
0.608,874.110378992746
0.609,874.110271853892
0.61,874.110164471879
0.611,874.110056849716
0.612,874.109948990378
0.613,874.109840896815
0.614,874.109732571929
0.615,874.109624018594
0.616,874.109515239657
0.617,874.10940623792
0.618,874.10929701616
0.619,874.10918757712
0.62,874.10907792351
0.621,874.108968058011
0.622,874.108857983265
0.623,874.108747701894
0.624,874.108637216484
0.625,874.108526529587
0.626,874.108415643733
0.627,874.108304561417
0.628,874.108193285113
0.629,874.108081817248
0.63,874.10797016024
0.631,874.107858316471
0.632,874.107746288291
0.633,874.107634078031
0.634,874.107521687991
0.635,874.107409120442
0.636,874.10729637763
0.637,874.107183461778
0.638,874.107070375075
0.639,874.106957119695
0.64,874.10684369778
0.641,874.106730111448
0.642,874.10661636279
0.643,874.106502453883
0.644,874.10638838676
0.645,874.106274163453
0.646,874.10615978595
0.647,874.106045256231
0.648,874.105930576252
0.649,874.105815747929
0.65,874.10570077318
0.651,874.105585653879
0.652,874.105470391893
0.653,874.105354989063
0.654,874.105239447205
0.655,874.105123768116
0.656,874.105007953572
0.657,874.104892005331
0.658,874.104775925123
0.659,874.104659714665
0.66,874.104543375657
0.661,874.104426909767
0.662,874.104310318651
0.663,874.104193603948
0.664,874.104076767276
0.665,874.103959810228
0.666,874.10384273439
0.667,874.103725541316
0.668,874.103608232549
0.669,874.103490809624
0.67,874.103373274035
0.671,874.103255627279
0.672,874.103137870823
0.673,874.103020006127
0.674,874.102902034624
0.675,874.102783957738
0.676,874.102665776874
0.677,874.102547493415
0.678,874.102429108738
0.679,874.102310624198
0.68,874.102192041133
0.681,874.102073360868
0.682,874.101954584714
0.683000000000001,874.101835713956
0.684000000000001,874.101716749885
0.685000000000001,874.101597693754
0.686000000000001,874.101478546815
0.687000000000001,874.101359310306
0.688000000000001,874.101239985441
0.689000000000001,874.101120573432
0.690000000000001,874.101001075462
0.691000000000001,874.100881492714
0.692000000000001,874.100761826351
0.693000000000001,874.100642077522
0.694000000000001,874.100522247363
0.695000000000001,874.100402336999
0.696000000000001,874.100282347541
0.697000000000001,874.100162280085
0.698000000000001,874.100042135714
0.699000000000001,874.099921915502
0.700000000000001,874.099801620508
0.701000000000001,874.099681251779
0.702000000000001,874.099560810349
0.703000000000001,874.099440297237
0.704000000000001,874.099319713462
0.705000000000001,874.099199060017
0.706000000000001,874.099078337888
0.707000000000001,874.098957548054
0.708000000000001,874.098836691478
0.709000000000001,874.098715769115
0.710000000000001,874.098594781899
0.711000000000001,874.098473730772
0.712000000000001,874.098352616645
0.713000000000001,874.098231440434
0.714000000000001,874.098110203034
0.715000000000001,874.09798890533
0.716000000000001,874.097867548202
0.717000000000001,874.09774613252
0.718000000000001,874.097624659141
0.719000000000001,874.097503128908
0.720000000000001,874.097381542663
0.721000000000001,874.097259901231
0.722000000000001,874.097138205429
0.723000000000001,874.097016456067
0.724000000000001,874.096894653944
0.725000000000001,874.096772799848
0.726000000000001,874.09665089456
0.727000000000001,874.096528938851
0.728000000000001,874.096406933489
0.729000000000001,874.096284879215
0.730000000000001,874.096162776782
0.731000000000001,874.096040626925
0.732000000000001,874.09591843037
0.733000000000001,874.095796187834
0.734000000000001,874.095673900031
0.735000000000001,874.095551567659
0.736000000000001,874.095429191414
0.737000000000001,874.095306771979
0.738000000000001,874.095184310036
0.739000000000001,874.095061806251
0.740000000000001,874.094939261289
0.741000000000001,874.094816675799
0.742000000000001,874.094694050428
0.743000000000001,874.09457138582
0.744000000000001,874.094448682606
0.745000000000001,874.094325941407
0.746000000000001,874.094203162836
0.747000000000001,874.094080347507
0.748000000000001,874.093957496025
0.749000000000001,874.093834608983
0.750000000000001,874.093711686965
0.751000000000001,874.093588730559
0.752000000000001,874.093465740334
0.753000000000001,874.093342716859
0.754000000000001,874.093219660701
0.755000000000001,874.093096572408
0.756000000000001,874.092973452531
0.757000000000001,874.092850301612
0.758000000000001,874.092727120183
0.759000000000001,874.092603908779
0.760000000000001,874.092480667917
0.761000000000001,874.092357398118
0.762000000000001,874.092234099895
0.763000000000001,874.092110773745
0.764000000000001,874.091987420172
0.765000000000001,874.091864039668
0.766000000000001,874.091740632721
0.767000000000001,874.091617199814
0.768000000000001,874.091493741418
0.769000000000001,874.091370258009
0.770000000000001,874.091246750046
0.771000000000001,874.091123217994
0.772000000000001,874.090999662303
0.773000000000001,874.090876083426
0.774000000000001,874.090752481801
0.775000000000001,874.090628857873
0.776000000000001,874.090505212067
0.777000000000001,874.090381544815
0.778000000000001,874.090257856546
0.779000000000001,874.090134147667
0.780000000000001,874.090010418601
0.781000000000001,874.089886669748
0.782000000000001,874.089762901517
0.783000000000001,874.089639114305
0.784000000000001,874.089515308505
0.785000000000001,874.08939148451
0.786000000000001,874.089267642703
0.787000000000001,874.089143783461
0.788000000000001,874.089019907167
0.789000000000001,874.088896014185
0.790000000000001,874.088772104887
0.791000000000001,874.088648179637
0.792000000000001,874.088524238788
0.793000000000001,874.088400282702
0.794000000000001,874.088276311727
0.795000000000001,874.088152326204
0.796000000000001,874.088028326476
