"Physical Time: Physical Time (s)","Surface Average Rear Temp1 Monitor: Surface Average of Temperature (K)"
0.001,298.000000841249
0.002,298.000007797348
0.003,298.000038314578
0.004,298.000132961305
0.005,298.000366221842
0.006,298.000853064964
0.007,298.001748541946
0.008,298.003240034069
0.009,298.005533901766
0.01,298.008839436908
0.011,298.013353074467
0.012,298.019245139793
0.013,298.026650421258
0.014,298.035662899342
0.015,298.046334344088
0.016,298.058675991769
0.017,298.072662440626
0.018,298.088236909446
0.019,298.10531707815
0.02,298.123801043644
0.021,298.143572901578
0.022,298.164507780644
0.023,298.186476154195
0.024,298.209347426155
0.025,298.23299280288
0.026,298.257287509758
0.027,298.282112400443
0.028,298.307355200199
0.029,298.332911133932
0.03,298.358683379069
0.031,298.384583208618
0.032,298.410529935394
0.033,298.436450706762
0.034,298.462280191675
0.035,298.487960193907
0.036,298.513439218542
0.037,298.538672012852
0.038,298.563619097762
0.039,298.588246092602
0.04,298.612523973212
0.041,298.636427793573
0.042,298.659936639158
0.043,298.683033218997
0.044,298.705703496465
0.045,298.727936350089
0.046,298.74972326196
0.047,298.771058032253
0.048,298.791936518479
0.049,298.812356398091
0.05,298.832316952982
0.051,298.851818874375
0.052,298.870864086636
0.053,298.889455588491
0.054,298.907597310262
0.055,298.925293985733
0.056,298.942551037379
0.057,298.959374473715
0.058,298.975770797694
0.059,298.991746925047
0.06,299.007310111664
0.061,299.022467442296
0.062,299.037227301046
0.063,299.051597504593
0.064,299.065586054645
0.065,299.079201058232
0.066,299.092450680624
0.067,299.105343110137
0.068,299.117886529633
0.069,299.130089092546
0.07,299.141958902423
0.071,299.153503995382
0.0720000000000001,299.164732325108
0.0730000000000001,299.175651750034
0.0740000000000001,299.186270022498
0.0750000000000001,299.196594779596
0.0760000000000001,299.206633535574
0.0770000000000001,299.21639367556
0.0780000000000001,299.225882450499
0.0790000000000001,299.235106973118
0.0800000000000001,299.244074214848
0.0810000000000001,299.252791003532
0.0820000000000001,299.261264021881
0.0830000000000001,299.269499806538
0.0840000000000001,299.277504747704
0.0850000000000001,299.28528508924
0.0860000000000001,299.292846929194
0.0870000000000001,299.300196220682
0.0880000000000001,299.307338773089
0.0890000000000001,299.314279648141
0.0900000000000001,299.321025227162
0.0910000000000001,299.327580763026
0.0920000000000001,299.333951455089
0.0930000000000001,299.340142396389
0.0940000000000001,299.346158559414
0.0950000000000001,299.352004792157
0.0960000000000001,299.357685817968
0.0970000000000001,299.363206236904
0.0980000000000001,299.368570527727
0.0990000000000001,299.373783050194
0.1,299.378848047491
0.101,299.383769648742
0.102,299.388551871555
0.103,299.393198624585
0.104,299.397713710087
0.105,299.402100826469
0.106,299.406363570812
0.107,299.410505441377
0.108,299.414529840068
0.109,299.418440074876
0.11,299.422239362272
0.111,299.425930829567
0.112,299.42951751723
0.113,299.433002381157
0.114,299.436388294906
0.115,299.439678051877
0.116,299.442874367447
0.117,299.445979881068
0.118,299.448997158301
0.119,299.451927930301
0.12,299.454775684701
0.121,299.457542614045
0.122,299.460230946222
0.123,299.462842878154
0.124,299.465380557785
0.125,299.467846078347
0.126,299.470241476965
0.127,299.472568734925
0.128,299.474829778593
0.129,299.477026480602
0.13,299.479160661156
0.131,299.481234089371
0.132,299.48324848462
0.133,299.485205517878
0.134,299.487106813028
0.135,299.48895394816
0.136,299.490748456832
0.137,299.492491829307
0.138,299.494185513753
0.139,299.495830917418
0.14,299.497429407778
0.141,299.498982313643
0.142,299.500490926246
0.143,299.501956500301
0.144,299.503380255021
0.145,299.504763375121
0.146,299.506107011793
0.147,299.507412283646
0.148,299.508680277621
0.149,299.509912049893
0.15,299.511108626734
0.151,299.512270062524
0.152,299.513398616656
0.153,299.514495043457
0.154,299.515560188293
0.155,299.516594908211
0.156,299.517600050273
0.157,299.518576443956
0.158,299.519524898444
0.159,299.520446201757
0.16,299.521341120652
0.161,299.522210400849
0.162,299.523054767403
0.163,299.52387492515
0.164,299.524671559198
0.165,299.525445335421
0.166,299.52619690096
0.167,299.526926884723
0.168,299.527635897881
0.169,299.528324534349
0.17,299.528993371266
0.171,299.529642969453
0.172,299.530273873878
0.173,299.530886614089
0.174,299.531481704651
0.175,299.532059645564
0.176,299.532620922677
0.177,299.53316600808
0.178,299.533695360497
0.179,299.534209425664
0.18,299.534708636686
0.181,299.53519341441
0.182,299.535664167757
0.183,299.536121294065
0.184,299.536565179421
0.185,299.536995035207
0.186,299.537412772392
0.187,299.537818542399
0.188,299.538212615257
0.189,299.538595291084
0.19,299.538966876535
0.191,299.539327676361
0.192,299.5396779901
0.193,299.540018110708
0.194,299.540348323996
0.195,299.540668908423
0.196,299.540980135077
0.197,299.541282267722
0.198,299.54157556292
0.199,299.541860270161
0.2,299.54213663202
0.201,299.542404884313
0.202,299.542665256269
0.203,299.542917970697
0.204,299.543163244148
0.205,299.543401287084
0.206,299.543632304043
0.207,299.543856493799
0.208,299.544074049518
0.209,299.544285158915
0.21,299.544490004403
0.211,299.544688763244
0.212,299.544881607688
0.213,299.545068705114
0.214,299.545250218174
0.215,299.545426304913
0.216,299.54559711891
0.217,299.5457628094
0.218,299.54592352139
0.219,299.546079395792
0.22,299.546230569525
0.221,299.546375733042
0.222,299.546516851974
0.223,299.546653852259
0.224,299.546786783388
0.225,299.546915729674
0.226,299.54704078752
0.227,299.547162057227
0.228,299.547279639652
0.229,299.547393634712
0.23,299.547504140676
0.231,299.547611253799
0.232,299.547715068145
0.233,299.547815675497
0.234,299.547913165319
0.235,299.548007624755
0.236,299.548099138648
0.237,299.548187789561
0.238,299.548273657826
0.239,299.548356821577
0.24,299.548437356804
0.241,299.548515337395
0.242,299.548590835194
0.243,299.548663920044
0.244,299.548734659843
0.245,299.54880312059
0.246,299.54886936644
0.247,299.548933459748
0.248,299.548995461122
0.249,299.549055429469
0.25,299.54911342204
0.251,299.549169494478
0.252,299.549223700861
0.253,299.549276093746
0.254,299.549326724211
0.255,299.549375641897
0.256,299.549422895047
0.257,299.549468530546
0.258,299.54951259396
0.259,299.549555129571
0.26,299.549596180413
0.261,299.549635788309
0.262,299.549673993905
0.263,299.549710836701
0.264,299.549744894627
0.265,299.549777962802
0.266,299.54980994603
0.267,299.549840830222
0.268,299.549870624793
0.269,299.54989934842
0.27,299.549927023793
0.271,299.549953675369
0.272,299.549979328314
0.273,299.550004007959
0.274,299.550027739506
0.275,299.550050547855
0.276,299.5500724575
0.277,299.550093492468
0.278,299.550113676276
0.279,299.550133031915
0.28,299.550151581831
0.281,299.550169347922
0.282,299.550186351541
0.283,299.55020261349
0.284,299.550218154038
0.285,299.55023299292
0.286,299.55024714935
0.287,299.550260642028
0.288,299.550273489151
0.289,299.55028570843
0.29,299.550297317093
0.291,299.5503083319
0.292,299.550318769157
0.293,299.550328644722
0.294,299.550337974022
0.295,299.550346772064
0.296,299.550355053437
0.297,299.550362832335
0.298,299.550370122561
0.299,299.550376937542
0.3,299.550383290334
0.301,299.550389193631
0.302,299.550394659784
0.303,299.550399700802
0.304,299.550404328363
0.305,299.550408553826
0.306,299.550412388236
0.307,299.550415842336
0.308,299.550418926573
0.309,299.550421651106
0.31,299.550424025816
0.311,299.550426060312
0.312,299.550427763939
0.313,299.550429145785
0.314,299.550430214688
0.315,299.550430979244
0.316,299.550431447811
0.317,299.55043162852
0.318,299.550431529277
0.319,299.550431157771
0.32,299.550430521479
0.321,299.550429627674
0.322,299.550428483428
0.323,299.550427095619
0.324,299.550425470937
0.325,299.550423615888
0.326,299.550421536798
0.327,299.550419239821
0.328,299.55041673094
0.329,299.550414015977
0.33,299.550411100589
0.331,299.550407990282
0.332,299.55040469041
0.333,299.550401206178
0.334,299.550397542651
0.335,299.550393704751
0.336,299.550389697269
0.337,299.550385524863
0.338,299.550381192061
0.339,299.55037670327
0.34,299.550372062773
0.341,299.550367274738
0.342,299.550362343216
0.343,299.550357272149
0.344,299.55035206537
0.345,299.550346726606
0.346,299.550341259483
0.347,299.550335667526
0.348,299.550329954164
0.349,299.550324122731
0.35,299.550318176473
0.351,299.550312118542
0.352,299.550305952006
0.353,299.550299679848
0.354,299.550293304971
0.355,299.550286830195
0.356,299.550280258265
0.357,299.55027359185
0.358,299.550266833546
0.359,299.550259985877
0.36,299.550253051299
0.361,299.550246032199
0.362,299.550238930899
0.363,299.550231749658
0.364,299.550224490672
0.365,299.550217156077
0.366,299.550209747952
0.367,299.550202268314
0.368,299.550194719132
0.369,299.550187102316
0.37,299.550179419723
0.371,299.550171673161
0.372,299.550163864388
0.373,299.550155995115
0.374,299.550148067003
0.375,299.550140081671
0.376,299.550132040688
0.377,299.550123945588
0.378,299.550115797856
0.379,299.550107598939
0.38,299.550099350245
0.381,299.55009105314
0.382,299.550082708958
0.383,299.55007431899
0.384,299.550065884497
0.385,299.550057406702
0.386,299.550048886796
0.387,299.550040325937
0.388,299.55003172525
0.389,299.550023085831
0.39,299.550014408746
0.391,299.55000569503
0.392,299.54999694569
0.393,299.549988161706
0.394,299.549979344031
0.395,299.549970493592
0.396,299.549961611289
0.397,299.549952698001
0.398,299.549943754578
0.399,299.54993478185
0.4,299.549925780623
0.401,299.549916751682
0.402,299.549907695788
0.403,299.549898613684
0.404,299.549889506092
0.405,299.549880373712
0.406,299.549871217227
0.407,299.5498620373
0.408,299.549852834577
0.409,299.549843609686
0.41,299.549834363236
0.411,299.54982509582
0.412,299.549815808019
0.413,299.549806500391
0.414,299.549797173484
0.415,299.549787827828
0.416,299.549778463938
0.417,299.549769082319
0.418,299.549759683459
0.419,299.549750267833
0.42,299.549740835903
0.421,299.549731388117
0.422,299.549721924913
0.423,299.549712446717
0.424,299.549702953941
0.425,299.549693446988
0.426,299.549683926249
0.427,299.549674392103
0.428,299.549664844921
0.429,299.549655285063
0.43,299.549645712878
0.431,299.549636128705
0.432,299.549626532877
0.433,299.549616925715
0.434,299.549607307532
0.435,299.549597678632
0.436,299.549588039311
0.437,299.549578389858
0.438,299.549568730551
0.439,299.549559061664
0.44,299.549549383461
0.441,299.549539696199
0.442,299.549530000129
0.443,299.549520295496
0.444,299.549510582534
0.445,299.549500861476
0.446,299.549491132544
0.447,299.549481395958
0.448,299.549471651929
0.449,299.549461900662
0.45,299.549452142359
0.451,299.549442377214
0.452,299.549432605417
0.453,299.549422827153
0.454,299.5494130426
0.455,299.549403251933
0.456,299.549393455323
0.457,299.549383652933
0.458,299.549373844923
0.459,299.549364031452
0.46,299.549354212669
0.461,299.549344388722
0.462,299.549334559756
0.463,299.54932472591
0.464,299.549314887319
0.465,299.549305044115
0.466,299.549295196427
0.467,299.54928534438
0.468,299.549275488096
0.469,299.549265627691
0.47,299.549255763282
0.471,299.549245894979
0.472,299.549236022892
0.473,299.549226147127
0.474,299.549216267785
0.475,299.549206384967
0.476,299.54919649877
0.477,299.549186609289
0.478,299.549176716616
0.479,299.54916682084
0.48,299.549156922048
0.481,299.549147020325
0.482,299.549137115752
0.483,299.54912720841
0.484,299.549117298377
0.485,299.549107385729
0.486,299.549097470538
0.487,299.549087552877
0.488,299.549077632814
0.489,299.549067710419
0.49,299.549057785757
0.491,299.54904785889
0.492,299.549037929883
0.493,299.549027998795
0.494,299.549018065686
0.495,299.549008130612
0.496,299.548998193629
0.497,299.548988254792
0.498,299.548978314154
0.499,299.548968371764
0.5,299.548958427675
0.501,299.548948481933
0.502,299.548938534586
0.503,299.548928585679
0.504,299.548918635258
0.505,299.548908683365
0.506,299.548898730045
0.507,299.548888775335
0.508,299.548878819277
0.509,299.54886886191
0.51,299.54885890327
0.511,299.548848943397
0.512,299.548838982323
0.513,299.548829020086
0.514,299.548819056717
0.515,299.54880909225
0.516,299.548799126717
0.517,299.54878916015
0.518,299.548779192577
0.519,299.548769224028
0.52,299.548759254533
0.521,299.548749284119
0.522,299.548739312812
0.523,299.54872934064
0.524,299.548719367627
0.525,299.548709393799
0.526,299.54869941918
0.527,299.548689443792
0.528,299.54867946766
0.529,299.548669490805
0.53,299.548659513249
0.531,299.548649535014
0.532,299.548639556118
0.533,299.548629576582
0.534,299.548619596426
0.535,299.54860961567
0.536,299.548599634329
0.537,299.548589652422
0.538,299.548579669969
0.539,299.548569686983
0.54,299.548559703483
0.541,299.548549719484
0.542,299.548539735001
0.543,299.54852975005
0.544,299.548519764644
0.545,299.548509778798
0.546,299.548499792527
0.547,299.548489805844
0.548,299.548479818762
0.549,299.548469831294
0.55,299.54845984345
0.551,299.548449855246
0.552,299.548439866691
0.553,299.548429877797
0.554,299.548419888575
0.555,299.548409899035
0.556,299.54839990919
0.557,299.548389919049
0.558,299.54837992862
0.559,299.548369937915
0.56,299.548359946943
0.561,299.548349955713
0.562,299.548339964233
0.563,299.548329972511
0.564,299.548319980558
0.565,299.548309988381
0.566,299.548299995987
0.567,299.548290003384
0.568,299.54828001058
0.569,299.548270017583
0.57,299.5482600244
0.571,299.548250031036
0.572,299.548240037499
0.573,299.548230043796
0.574,299.548220049933
0.575,299.548210055916
0.576,299.548200061751
0.577,299.548190067444
0.578,299.548180073
0.579,299.548170078425
0.58,299.548160083725
0.581,299.548150088905
0.582,299.548140093969
0.583,299.548130098922
0.584,299.548120103771
0.585,299.548110108518
0.586,299.54810011317
0.587,299.54809011773
0.588,299.548080122202
0.589,299.548070126592
0.59,299.548060130901
0.591,299.548050135136
0.592,299.548040139298
0.593,299.548030143393
0.594,299.548020147425
0.595,299.548010151395
0.596,299.54800015531
0.597,299.547990159169
0.598,299.547980162979
0.599,299.547970166741
0.6,299.547960170458
0.601,299.547950174136
0.602,299.547940177773
0.603,299.547930181376
0.604,299.547920184947
0.605,299.547910188486
0.606,299.547900191999
0.607,299.547890195487
0.608,299.547880198952
0.609,299.547870202398
0.61,299.547860205825
0.611,299.547850209238
0.612,299.547840212637
0.613,299.547830216024
0.614,299.547820219404
0.615,299.547810222776
0.616,299.547800226142
0.617,299.547790229507
0.618,299.547780232869
0.619,299.547770236233
0.62,299.547760239599
0.621,299.547750242968
0.622,299.547740246344
0.623,299.547730249727
0.624,299.547720253119
0.625,299.547710256522
0.626,299.547700259936
0.627,299.547690263364
0.628,299.547680266807
0.629,299.547670270266
0.63,299.547660273743
0.631,299.547650277238
0.632,299.547640280755
0.633,299.547630284291
0.634,299.547620287851
0.635,299.547610291435
0.636,299.547600295043
0.637,299.547590298677
0.638,299.547580302339
0.639,299.547570306028
0.64,299.547560309746
0.641,299.547550313495
0.642,299.547540317274
0.643,299.547530321086
0.644,299.547520324931
0.645,299.547510328809
0.646,299.547500332722
0.647,299.54749033667
0.648,299.547480340655
0.649,299.547470344676
0.65,299.547460348735
0.651,299.547450352834
0.652,299.547440356971
0.653,299.547430361148
0.654,299.547420365365
0.655,299.547410369625
0.656,299.547400373926
0.657,299.54739037827
0.658,299.547380382657
0.659,299.547370387087
0.66,299.547360391563
0.661,299.547350396083
0.662,299.547340400649
0.663,299.547330405261
0.664,299.547320409919
0.665,299.547310414624
0.666,299.547300419377
0.667,299.547290424179
0.668,299.547280429028
0.669,299.547270433926
0.67,299.547260438875
0.671,299.547250443872
0.672,299.547240448921
0.673,299.547230454019
0.674,299.547220459169
0.675,299.54721046437
0.676,299.547200469623
0.677,299.547190474927
0.678,299.547180480285
0.679,299.547170485696
0.68,299.547160491159
0.681,299.547150496676
0.682,299.547140502247
0.683000000000001,299.547130507872
0.684000000000001,299.547120513551
0.685000000000001,299.547110519285
0.686000000000001,299.547100525075
0.687000000000001,299.54709053092
0.688000000000001,299.54708053682
0.689000000000001,299.547070542774
0.690000000000001,299.547060548787
0.691000000000001,299.547050554855
0.692000000000001,299.547040560979
0.693000000000001,299.547030567161
0.694000000000001,299.547020573399
0.695000000000001,299.547010579695
0.696000000000001,299.547000586047
0.697000000000001,299.546990592459
0.698000000000001,299.546980598927
0.699000000000001,299.546970605453
0.700000000000001,299.546960612038
0.701000000000001,299.546950618681
0.702000000000001,299.546940625382
0.703000000000001,299.546930632143
0.704000000000001,299.546920638962
0.705000000000001,299.546910645841
0.706000000000001,299.546900652778
0.707000000000001,299.546890659775
0.708000000000001,299.546880666832
0.709000000000001,299.546870673948
0.710000000000001,299.546860681123
0.711000000000001,299.54685068836
0.712000000000001,299.546840695657
0.713000000000001,299.546830703012
0.714000000000001,299.54682071043
0.715000000000001,299.546810717907
0.716000000000001,299.546800725445
0.717000000000001,299.546790733044
0.718000000000001,299.546780740704
0.719000000000001,299.546770748425
0.720000000000001,299.546760756206
0.721000000000001,299.54675076405
0.722000000000001,299.546740771953
0.723000000000001,299.546730779919
0.724000000000001,299.546720787946
0.725000000000001,299.546710796036
0.726000000000001,299.546700804185
0.727000000000001,299.546690812398
0.728000000000001,299.546680820672
0.729000000000001,299.546670829008
0.730000000000001,299.546660837406
0.731000000000001,299.546650845866
0.732000000000001,299.546640854389
0.733000000000001,299.546630862973
0.734000000000001,299.546620871621
0.735000000000001,299.54661088033
0.736000000000001,299.546600889102
0.737000000000001,299.546590897937
0.738000000000001,299.546580906834
0.739000000000001,299.546570915793
0.740000000000001,299.546560924816
0.741000000000001,299.546550933901
0.742000000000001,299.546540943049
0.743000000000001,299.54653095226
0.744000000000001,299.546520961535
0.745000000000001,299.546510970872
0.746000000000001,299.546500980272
0.747000000000001,299.546490989735
0.748000000000001,299.546480999262
0.749000000000001,299.546471008851
0.750000000000001,299.546461018505
0.751000000000001,299.546451028222
0.752000000000001,299.546441038001
0.753000000000001,299.546431047845
0.754000000000001,299.546421057751
0.755000000000001,299.546411067722
0.756000000000001,299.546401077755
0.757000000000001,299.546391087852
0.758000000000001,299.546381098014
0.759000000000001,299.546371108238
0.760000000000001,299.546361118526
0.761000000000001,299.546351128878
0.762000000000001,299.546341139294
0.763000000000001,299.546331149774
0.764000000000001,299.546321160316
0.765000000000001,299.546311170924
0.766000000000001,299.546301181595
0.767000000000001,299.54629119233
0.768000000000001,299.546281203129
0.769000000000001,299.546271213992
0.770000000000001,299.546261224919
0.771000000000001,299.54625123591
0.772000000000001,299.546241246965
0.773000000000001,299.546231258085
0.774000000000001,299.546221269268
0.775000000000001,299.546211280515
0.776000000000001,299.546201291826
0.777000000000001,299.546191303202
0.778000000000001,299.546181314643
0.779000000000001,299.546171326147
0.780000000000001,299.546161337715
0.781000000000001,299.546151349348
0.782000000000001,299.546141361043
0.783000000000001,299.546131372805
0.784000000000001,299.546121384631
0.785000000000001,299.54611139652
0.786000000000001,299.546101408474
0.787000000000001,299.546091420493
0.788000000000001,299.546081432576
0.789000000000001,299.546071444723
0.790000000000001,299.546061456936
0.791000000000001,299.546051469211
0.792000000000001,299.546041481551
0.793000000000001,299.546031493957
0.794000000000001,299.546021506426
0.795000000000001,299.54601151896
0.796000000000001,299.546001531559
