"Physical Time: Physical Time (s)","Surface Average Rear Temp1 Monitor: Surface Average of Temperature (K)"
0.001,1573
0.002,1573
0.003,1573
0.004,1573
0.005,1573.00000000001
0.006,1573.00000000005
0.007,1573.00000000018
0.008,1573.00000000055
0.009,1573.00000000148
0.01,1573.00000000366
0.011,1573.00000000842
0.012,1573.00000001815
0.013,1573.00000003697
0.014,1573.00000007157
0.015,1573.00000013241
0.016,1573.0000002352
0.017,1573.00000040266
0.018,1573.00000066671
0.019,1573.00000107082
0.02,1573.00000167269
0.021,1573.00000254706
0.022,1573.00000378861
0.023,1573.00000551489
0.024,1573.00000786907
0.025,1573.00001102259
0.026,1573.00001517738
0.027,1573.00002056784
0.028,1573.00002746229
0.029,1573.00003616388
0.03,1573.00004701112
0.031,1573.00006037766
0.032,1573.0000766717
0.033,1573.00009633462
0.034,1573.00011983945
0.035,1573.00014768856
0.036,1573.00018041112
0.037,1573.00021856012
0.038,1573.00026270912
0.039,1573.00031344884
0.04,1573.00037138345
0.041,1573.00043712691
0.042,1573.0005112992
0.043,1573.00059452254
0.044,1573.00068741774
0.045,1573.00079060067
0.046,1573.00090467877
0.047,1573.0010302479
0.048,1573.00116788927
0.049,1573.00131816669
0.05,1573.00148162398
0.051,1573.00165878275
0.052,1573.0018501403
0.053,1573.00205616858
0.054,1573.00227731036
0.055,1573.00251398072
0.056,1573.0027665648
0.057,1573.00303541712
0.058,1573.00332086101
0.059,1573.00362318831
0.06,1573.0039426592
0.061,1573.00427950222
0.062,1573.00463391449
0.063,1573.00500606205
0.064,1573.00539608028
0.065,1573.00580407461
0.066,1573.00623012111
0.067,1573.00667426735
0.068,1573.00713653328
0.069,1573.00761691211
0.07,1573.00811537141
0.071,1573.00863185403
0.0720000000000001,1573.0091662793
0.0730000000000001,1573.00971854404
0.0740000000000001,1573.01028852372
0.0750000000000001,1573.0108760736
0.0760000000000001,1573.01148102984
0.0770000000000001,1573.01210321065
0.0780000000000001,1573.01274241739
0.0790000000000001,1573.0133984357
0.0800000000000001,1573.0140710366
0.0810000000000001,1573.0147599775
0.0820000000000001,1573.01546500332
0.0830000000000001,1573.01618584845
0.0840000000000001,1573.01692223435
0.0850000000000001,1573.01767387455
0.0860000000000001,1573.01844047384
0.0870000000000001,1573.01922172921
0.0880000000000001,1573.02001733074
0.0890000000000001,1573.02082696241
0.0900000000000001,1573.02165030291
0.0910000000000001,1573.0224870264
0.0920000000000001,1573.0233368032
0.0930000000000001,1573.0241993005
0.0940000000000001,1573.02507418297
0.0950000000000001,1573.02596111342
0.0960000000000001,1573.02685975331
0.0970000000000001,1573.02776976338
0.0980000000000001,1573.02869080408
0.0990000000000001,1573.02962253609
0.1,1573.03056462077
0.101,1573.03151672059
0.102,1573.03247849948
0.103,1573.03344962326
0.104,1573.03442975993
0.105,1573.03541858
0.106,1573.0364157568
0.107,1573.03742096673
0.108,1573.03843388949
0.109,1573.03945420835
0.11,1573.04048161031
0.111,1573.04151578632
0.112,1573.04255643144
0.113,1573.04360324498
0.114,1573.04465593064
0.115,1573.04571419664
0.116,1573.04677775583
0.117,1573.04784632575
0.118,1573.04891962876
0.119,1573.04999739204
0.12,1573.05107934773
0.121,1573.0521652329
0.122,1573.05325478963
0.123,1573.054347765
0.124,1573.05544391117
0.125,1573.05654298532
0.126,1573.05764474968
0.127,1573.05874897153
0.128,1573.05985541085
0.129,1573.06096386109
0.13,1573.06207410238
0.131,1573.06318592136
0.132,1573.06429910995
0.133,1573.06541346508
0.134,1573.06652878861
0.135,1573.06764488723
0.136,1573.0687615724
0.137,1573.06987866031
0.138,1573.07099597181
0.139,1573.07211333234
0.14,1573.07323057191
0.141,1573.07434752496
0.142,1573.07546403039
0.143,1573.07657993142
0.144,1573.07769507556
0.145,1573.07880931455
0.146,1573.07992250426
0.147,1573.08103450464
0.148,1573.08214517967
0.149,1573.08325439725
0.15,1573.08436202915
0.151,1573.08546795095
0.152,1573.08657204197
0.153,1573.08767418516
0.154,1573.08877426709
0.155,1573.08987217783
0.156,1573.09096781091
0.157,1573.09206106324
0.158,1573.09315183503
0.159,1573.09424002974
0.16,1573.09532555402
0.161,1573.0964083176
0.162,1573.09748823326
0.163,1573.09856521678
0.164,1573.09963918681
0.165,1573.10071006488
0.166,1573.10177777527
0.167,1573.102842245
0.168,1573.10390340373
0.169,1573.10496118374
0.17,1573.10601551981
0.171,1573.10706634922
0.172,1573.10811361166
0.173,1573.10915724917
0.174,1573.1101972061
0.175,1573.11123342904
0.176,1573.11226586679
0.177,1573.11329447025
0.178,1573.11431919245
0.179,1573.1153399884
0.18,1573.11635681514
0.181,1573.11736963162
0.182,1573.11837839865
0.183,1573.11938307892
0.184,1573.12038363687
0.185,1573.1213800387
0.186,1573.12237225228
0.187,1573.12336024717
0.188,1573.12434399449
0.189,1573.12532346697
0.19,1573.12629863882
0.191,1573.12726948576
0.192,1573.12823598494
0.193,1573.12919811491
0.194,1573.1301558556
0.195,1573.13110918824
0.196,1573.13205809538
0.197,1573.13300256079
0.198,1573.13394256949
0.199,1573.13487810766
0.2,1573.13580916264
0.201,1573.13673572291
0.202,1573.137657778
0.203,1573.13857531852
0.204,1573.13948833609
0.205,1573.14039682333
0.206,1573.14130077383
0.207,1573.14220018213
0.208,1573.14309504364
0.209,1573.14398535469
0.21,1573.14487111245
0.211,1573.14575231493
0.212,1573.14662896093
0.213,1573.14750105005
0.214,1573.14836858263
0.215,1573.14923155976
0.216,1573.15008998322
0.217,1573.15094385549
0.218,1573.15179317972
0.219,1573.15263795971
0.22,1573.15347819988
0.221,1573.15431390524
0.222,1573.1551450814
0.223,1573.15597173454
0.224,1573.15679387138
0.225,1573.15761149918
0.226,1573.1584246257
0.227,1573.1592332592
0.228,1573.16003740841
0.229,1573.16083708254
0.23,1573.16163229124
0.231,1573.16242304458
0.232,1573.16320935305
0.233,1573.16399122754
0.234,1573.16476861274
0.235,1573.16554160296
0.236,1573.16631020247
0.237,1573.16707442066
0.238,1573.16783426865
0.239,1573.16858975851
0.24,1573.16934090293
0.241,1573.17008771511
0.242,1573.17083020864
0.243,1573.17156839747
0.244,1573.17230229587
0.245,1573.17303191839
0.246,1573.17375727985
0.247,1573.17447839533
0.248,1573.17519528014
0.249,1573.1759079498
0.25,1573.17661642007
0.251,1573.17732070688
0.252,1573.17802082637
0.253,1573.17871679485
0.254,1573.17940862883
0.255,1573.18009634494
0.256,1573.18077996001
0.257,1573.18145949098
0.258,1573.18213495496
0.259,1573.18280636917
0.26,1573.18347375096
0.261,1573.18413711781
0.262,1573.1847964873
0.263,1573.18545187712
0.264,1573.18610330506
0.265,1573.18675078898
0.266,1573.18739434687
0.267,1573.18803399677
0.268,1573.18866975679
0.269,1573.18930164512
0.27,1573.18992968003
0.271,1573.19055387983
0.272,1573.19117426288
0.273,1573.19179084761
0.274,1573.19240365248
0.275,1573.19301269598
0.276,1573.19361799667
0.277,1573.19421957311
0.278,1573.19481744391
0.279,1573.19541162768
0.28,1573.19600214307
0.281,1573.19658900873
0.282,1573.19717224335
0.283,1573.1977518656
0.284,1573.19832789416
0.285,1573.19890034774
0.286,1573.199469245
0.287,1573.20003460465
0.288,1573.20059644535
0.289,1573.20115478577
0.29,1573.20170964458
0.291,1573.2022610404
0.292,1573.20280899186
0.293,1573.20335351757
0.294,1573.20389463609
0.295,1573.20443236599
0.296,1573.20496672579
0.297,1573.20549773398
0.298,1573.20602540904
0.299,1573.20654976939
0.3,1573.20707083343
0.301,1573.20758861951
0.302,1573.20810314595
0.303,1573.20861443102
0.304,1573.20912249297
0.305,1573.20962734998
0.306,1573.21012902019
0.307,1573.21062752169
0.308,1573.21112287253
0.309,1573.2116150907
0.31,1573.21210419414
0.311,1573.21259020075
0.312,1573.21307312835
0.313,1573.21355299472
0.314,1573.21402981759
0.315,1573.21450361461
0.316,1573.21497440338
0.317,1573.21544220145
0.318,1573.2159070263
0.319,1573.21636889534
0.32,1573.21682782593
0.321,1573.21728383537
0.322,1573.21773694087
0.323,1573.2181871596
0.324,1573.21863450864
0.325,1573.21907900503
0.326,1573.21952066573
0.327,1573.21995950762
0.328,1573.22039554752
0.329,1573.22082880218
0.33,1573.22125928829
0.331,1573.22168702244
0.332,1573.22211202119
0.333,1573.22253430099
0.334,1573.22295387825
0.335,1573.22337076927
0.336,1573.22378499031
0.337,1573.22419655754
0.338,1573.22460548706
0.339,1573.22501179489
0.34,1573.22541549699
0.341,1573.22581660924
0.342,1573.22621514743
0.343,1573.2266111273
0.344,1573.22700456448
0.345,1573.22739547456
0.346,1573.22778387304
0.347,1573.22816977534
0.348,1573.2285531968
0.349,1573.2289341527
0.35,1573.22931265823
0.351,1573.22968872851
0.352,1573.23006237857
0.353,1573.23043362339
0.354,1573.23080247785
0.355,1573.23116895676
0.356,1573.23153307485
0.357,1573.23189484679
0.358,1573.23225428715
0.359,1573.23261141043
0.36,1573.23296623107
0.361,1573.23331876342
0.362,1573.23366902174
0.363,1573.23401702023
0.364,1573.23436277303
0.365,1573.23470629416
0.366,1573.2350475976
0.367,1573.23538669725
0.368,1573.23572360691
0.369,1573.23605834032
0.37,1573.23639091116
0.371,1573.23672133301
0.372,1573.23704961937
0.373,1573.2373757837
0.374,1573.23769983935
0.375,1573.23802179962
0.376,1573.2383416777
0.377,1573.23865948675
0.378,1573.23897523982
0.379,1573.2392889499
0.38,1573.23960062991
0.381,1573.2399102927
0.382,1573.24021795102
0.383,1573.24052361757
0.384,1573.24082730498
0.385,1573.24112902579
0.386,1573.24142879248
0.387,1573.24172661745
0.388,1573.24202251303
0.389,1573.24231649148
0.39,1573.24260856499
0.391,1573.24289874568
0.392,1573.24318704558
0.393,1573.24347347668
0.394,1573.24375805087
0.395,1573.24404077998
0.396,1573.24432167579
0.397,1573.24460074998
0.398,1573.24487801418
0.399,1573.24515347993
0.4,1573.24542715873
0.401,1573.245699062
0.402,1573.24596920107
0.403,1573.24623758722
0.404,1573.24650423168
0.405,1573.24676914558
0.406,1573.24703234
0.407,1573.24729382596
0.408,1573.24755361438
0.409,1573.24781171616
0.41,1573.2480681421
0.411,1573.24832290295
0.412,1573.24857600939
0.413,1573.24882747203
0.414,1573.24907730142
0.415,1573.24932550805
0.416,1573.24957210233
0.417,1573.24981709464
0.418,1573.25006049526
0.419,1573.25030231441
0.42,1573.25054256228
0.421,1573.25078124896
0.422,1573.2510183845
0.423,1573.25125397888
0.424,1573.25148804201
0.425,1573.25172058376
0.426,1573.25195161393
0.427,1573.25218114224
0.428,1573.25240917837
0.429,1573.25263573194
0.43,1573.25286081251
0.431,1573.25308429186
0.432,1573.25330647755
0.433,1573.25352707267
0.434,1573.25374625141
0.435,1573.25396401517
0.436,1573.2541803699
0.437,1573.25439532287
0.438,1573.25460888195
0.439,1573.25482105534
0.44,1573.25503185142
0.441,1573.25524127866
0.442,1573.25544934558
0.443,1573.25565606072
0.444,1573.25586143263
0.445,1573.25606546981
0.446,1573.25626818076
0.447,1573.25646957393
0.448,1573.25666965775
0.449,1573.2568684406
0.45,1573.25706593082
0.451,1573.25726213672
0.452,1573.25745706653
0.453,1573.25765072847
0.454,1573.2578431307
0.455,1573.25803428134
0.456,1573.25822418844
0.457,1573.25841286003
0.458,1573.25860030408
0.459,1573.25878652852
0.46,1573.25897154121
0.461,1573.25915534999
0.462,1573.25933796264
0.463,1573.25951938688
0.464,1573.25969963041
0.465,1573.25987870086
0.466,1573.26005660582
0.467,1573.26023335283
0.468,1573.26040894939
0.469,1573.26058340294
0.47,1573.26075672089
0.471,1573.26092891059
0.472,1573.26109997936
0.473,1573.26126993445
0.474,1573.26143878308
0.475,1573.26160653242
0.476,1573.26177318961
0.477,1573.26193876171
0.478,1573.26210325577
0.479,1573.26226667877
0.48,1573.26242903767
0.481,1573.26259033937
0.482,1573.26275059072
0.483,1573.26290979855
0.484,1573.26306796961
0.485,1573.26322511065
0.486,1573.26338122835
0.487,1573.26353632934
0.488,1573.26369042023
0.489,1573.26384350758
0.49,1573.2639955979
0.491,1573.26414669767
0.492,1573.26429681332
0.493,1573.26444595125
0.494,1573.26459411779
0.495,1573.26474131927
0.496,1573.26488756196
0.497,1573.26503285207
0.498,1573.2651771958
0.499,1573.26532059931
0.5,1573.26546306869
0.501,1573.26560461003
0.502,1573.26574522935
0.503,1573.26588493264
0.504,1573.26602372586
0.505,1573.26616161493
0.506,1573.26629860572
0.507,1573.26643470407
0.508,1573.26656991578
0.509,1573.26670424663
0.51,1573.26683770233
0.511,1573.26697028858
0.512,1573.26710201103
0.513,1573.2672328753
0.514,1573.26736288697
0.515,1573.26749205158
0.516,1573.26762037465
0.517,1573.26774786165
0.518,1573.26787451801
0.519,1573.26800034915
0.52,1573.26812536042
0.521,1573.26824955717
0.522,1573.26837294469
0.523,1573.26849552825
0.524,1573.26861731307
0.525,1573.26873830436
0.526,1573.26885850728
0.527,1573.26897792695
0.528,1573.26909656848
0.529,1573.26921443693
0.53,1573.26933153733
0.531,1573.26944787468
0.532,1573.26956345394
0.533,1573.26967828005
0.534,1573.26979235791
0.535,1573.26990569239
0.536,1573.27001828833
0.537,1573.27013015054
0.538,1573.2702412838
0.539,1573.27035169284
0.54,1573.27046138238
0.541,1573.27057035711
0.542,1573.27067862168
0.543,1573.27078618072
0.544,1573.27089303881
0.545,1573.27099920053
0.546,1573.2711046704
0.547,1573.27120945293
0.548,1573.27131355259
0.549,1573.27141697384
0.55,1573.27151972108
0.551,1573.27162179871
0.552,1573.27172321109
0.553,1573.27182396255
0.554,1573.2719240574
0.555,1573.2720234999
0.556,1573.27212229431
0.557,1573.27222044485
0.558,1573.27231795572
0.559,1573.27241483107
0.56,1573.27251107505
0.561,1573.27260669177
0.562,1573.27270168531
0.563,1573.27279605974
0.564,1573.27288981908
0.565,1573.27298296735
0.566,1573.27307550852
0.567,1573.27316744654
0.568,1573.27325878535
0.569,1573.27334952885
0.57,1573.27343968091
0.571,1573.2735292454
0.572,1573.27361822613
0.573,1573.27370662691
0.574,1573.27379445151
0.575,1573.2738817037
0.576,1573.2739683872
0.577,1573.27405450571
0.578,1573.27414006292
0.579,1573.27422506248
0.58,1573.27430950802
0.581,1573.27439340316
0.582,1573.27447675147
0.583,1573.27455955653
0.584,1573.27464182187
0.585,1573.27472355101
0.586,1573.27480474744
0.587,1573.27488541464
0.588,1573.27496555604
0.589,1573.27504517508
0.59,1573.27512427516
0.591,1573.27520285966
0.592,1573.27528093194
0.593,1573.27535849534
0.594,1573.27543555317
0.595,1573.27551210873
0.596,1573.27558816529
0.597,1573.27566372611
0.598,1573.2757387944
0.599,1573.27581337339
0.6,1573.27588746625
0.601,1573.27596107617
0.602,1573.27603420628
0.603,1573.27610685971
0.604,1573.27617903956
0.605,1573.27625074893
0.606,1573.27632199088
0.607,1573.27639276845
0.608,1573.27646308468
0.609,1573.27653294256
0.61,1573.27660234509
0.611,1573.27667129523
0.612,1573.27673979593
0.613,1573.27680785011
0.614,1573.2768754607
0.615,1573.27694263058
0.616,1573.27700936261
0.617,1573.27707565966
0.618,1573.27714152457
0.619,1573.27720696013
0.62,1573.27727196916
0.621,1573.27733655444
0.622,1573.27740071872
0.623,1573.27746446474
0.624,1573.27752779525
0.625,1573.27759071293
0.626,1573.27765322049
0.627,1573.2777153206
0.628,1573.2777770159
0.629,1573.27783830905
0.63,1573.27789920266
0.631,1573.27795969933
0.632,1573.27801980165
0.633,1573.27807951219
0.634,1573.27813883351
0.635,1573.27819776815
0.636,1573.27825631861
0.637,1573.27831448741
0.638,1573.27837227703
0.639,1573.27842968995
0.64,1573.27848672862
0.641,1573.27854339548
0.642,1573.27859969295
0.643,1573.27865562344
0.644,1573.27871118934
0.645,1573.27876639303
0.646,1573.27882123687
0.647,1573.27887572321
0.648,1573.27892985436
0.649,1573.27898363266
0.65,1573.2790370604
0.651,1573.27909013986
0.652,1573.27914287332
0.653,1573.27919526303
0.654,1573.27924731122
0.655,1573.27929902014
0.656,1573.27935039198
0.657,1573.27940142894
0.658,1573.27945213321
0.659,1573.27950250696
0.66,1573.27955255234
0.661,1573.27960227149
0.662,1573.27965166653
0.663,1573.27970073959
0.664,1573.27974949275
0.665,1573.27979792811
0.666,1573.27984604773
0.667,1573.27989385367
0.668,1573.27994134798
0.669,1573.27998853269
0.67,1573.28003540982
0.671,1573.28008198137
0.672,1573.28012824933
0.673,1573.28017421568
0.674,1573.28021988239
0.675,1573.28026525142
0.676,1573.28031032469
0.677,1573.28035510415
0.678,1573.28039959169
0.679,1573.28044378924
0.68,1573.28048769867
0.681,1573.28053132187
0.682,1573.2805746607
0.683000000000001,1573.28061771702
0.684000000000001,1573.28066049266
0.685000000000001,1573.28070298946
0.686000000000001,1573.28074520923
0.687000000000001,1573.28078715378
0.688000000000001,1573.28082882491
0.689000000000001,1573.28087022439
0.690000000000001,1573.280911354
0.691000000000001,1573.28095221549
0.692000000000001,1573.28099281061
0.693000000000001,1573.28103314111
0.694000000000001,1573.2810732087
0.695000000000001,1573.2811130151
0.696000000000001,1573.28115256201
0.697000000000001,1573.28119185112
0.698000000000001,1573.28123088411
0.699000000000001,1573.28126966266
0.700000000000001,1573.28130818842
0.701000000000001,1573.28134646303
0.702000000000001,1573.28138448815
0.703000000000001,1573.28142226538
0.704000000000001,1573.28145979635
0.705000000000001,1573.28149708267
0.706000000000001,1573.28153412592
0.707000000000001,1573.2815709277
0.708000000000001,1573.28160748957
0.709000000000001,1573.2816438131
0.710000000000001,1573.28167989985
0.711000000000001,1573.28171554274
0.712000000000001,1573.2817509758
0.713000000000001,1573.28178619116
0.714000000000001,1573.28182118651
0.715000000000001,1573.28185596109
0.716000000000001,1573.28189051489
0.717000000000001,1573.28192484832
0.718000000000001,1573.2819589621
0.719000000000001,1573.28199285709
0.720000000000001,1573.2820265343
0.721000000000001,1573.28205999482
0.722000000000001,1573.28209323978
0.723000000000001,1573.28212627038
0.724000000000001,1573.28215908782
0.725000000000001,1573.28219169333
0.726000000000001,1573.28222408816
0.727000000000001,1573.28225627356
0.728000000000001,1573.28228825079
0.729000000000001,1573.28232002112
0.730000000000001,1573.28235158582
0.731000000000001,1573.28238294616
0.732000000000001,1573.2824141034
0.733000000000001,1573.2824450588
0.734000000000001,1573.28247581364
0.735000000000001,1573.28250636917
0.736000000000001,1573.28253672664
0.737000000000001,1573.28256688731
0.738000000000001,1573.28259685243
0.739000000000001,1573.28262662323
0.740000000000001,1573.28265620095
0.741000000000001,1573.28268558682
0.742000000000001,1573.28271478207
0.743000000000001,1573.28274378791
0.744000000000001,1573.28277260555
0.745000000000001,1573.2828012362
0.746000000000001,1573.28282968106
0.747000000000001,1573.28285794131
0.748000000000001,1573.28288601816
0.749000000000001,1573.28291391276
0.750000000000001,1573.28294162631
0.751000000000001,1573.28296915995
0.752000000000001,1573.28299651486
0.753000000000001,1573.28302369217
0.754000000000001,1573.28305069305
0.755000000000001,1573.28307751862
0.756000000000001,1573.28310417002
0.757000000000001,1573.28313064837
0.758000000000001,1573.28315695478
0.759000000000001,1573.28318309038
0.760000000000001,1573.28320905626
0.761000000000001,1573.28323485352
0.762000000000001,1573.28326048326
0.763000000000001,1573.28328594655
0.764000000000001,1573.28331124447
0.765000000000001,1573.28333637809
0.766000000000001,1573.28336134848
0.767000000000001,1573.28338615669
0.768000000000001,1573.28341080378
0.769000000000001,1573.28343529078
0.770000000000001,1573.28345961874
0.771000000000001,1573.28348378868
0.772000000000001,1573.28350780163
0.773000000000001,1573.28353165861
0.774000000000001,1573.28355536062
0.775000000000001,1573.28357890867
0.776000000000001,1573.28360230377
0.777000000000001,1573.28362554689
0.778000000000001,1573.28364863903
0.779000000000001,1573.28367158117
0.780000000000001,1573.28369437428
0.781000000000001,1573.28371701933
0.782000000000001,1573.28373951727
0.783000000000001,1573.28376186906
0.784000000000001,1573.28378407565
0.785000000000001,1573.28380613799
0.786000000000001,1573.283828057
0.787000000000001,1573.28384983362
0.788000000000001,1573.28387146877
0.789000000000001,1573.28389296337
0.790000000000001,1573.28391431833
0.791000000000001,1573.28393553457
0.792000000000001,1573.28395661297
0.793000000000001,1573.28397755444
0.794000000000001,1573.28399835986
0.795000000000001,1573.28401903011
0.796000000000001,1573.28403956608
0.797000000000001,1573.28405996864
