"Physical Time: Physical Time (s)","Surface Average Rear Temp1 Monitor: Surface Average of Temperature (K)"
0.001,873.000000000061
0.002,873.000000000821
0.003,873.000000005714
0.004,873.000000027714
0.005,873.000000105273
0.006,873.000000333682
0.007,873.000000918389
0.008,873.000002255316
0.009,873.000005039972
0.01,873.000010402634
0.011,873.000020062177
0.012,873.000036487127
0.013,873.000063050216
0.014,873.000104162185
0.015,873.000165372252
0.016,873.000253424842
0.017,873.000376267893
0.018,873.000543009893
0.019,873.000763828457
0.02,873.001049835843
0.021,873.001412910928
0.022,873.001865499149
0.023,873.002420405908
0.024,873.00309057767
0.025,873.00388888675
0.026,873.004827926216
0.027,873.005919820825
0.028,873.007176058452
0.029,873.008607344998
0.03,873.010223484381
0.031,873.012033294384
0.032,873.014044504953
0.033,873.016263745475
0.034,873.018696510822
0.035,873.02134715615
0.036,873.024218909847
0.037,873.027313901401
0.038,873.03063320155
0.039,873.034176872333
0.04,873.037944024822
0.041,873.041932882502
0.042,873.046140848513
0.043,873.050564575152
0.044,873.055200034275
0.045,873.060042587447
0.046,873.065087054873
0.047,873.070327782358
0.048,873.075758722023
0.049,873.081373442377
0.05,873.087165237497
0.051,873.093127167673
0.052,873.099252107484
0.053,873.105532792109
0.054,873.111961860297
0.055,873.118531893667
0.056,873.125235452378
0.057,873.132065107292
0.058,873.139013468782
0.059,873.146073212381
0.06,873.153237101443
0.061,873.160498007018
0.062,873.167848925135
0.063,873.175282991676
0.064,873.182793495034
0.065,873.190373886746
0.066,873.198017790258
0.067,873.205719008006
0.068,873.21347152696
0.069,873.221269522793
0.07,873.229107362798
0.071,873.236979607702
0.0720000000000001,873.244881012485
0.0730000000000001,873.252806526321
0.0740000000000001,873.260751291747
0.0750000000000001,873.268710643154
0.0760000000000001,873.276680104679
0.0770000000000001,873.2846553876
0.0780000000000001,873.29263238727
0.0790000000000001,873.30060707611
0.0800000000000001,873.308575837973
0.0810000000000001,873.316535090232
0.0820000000000001,873.324481419869
0.0830000000000001,873.332411581132
0.0840000000000001,873.340322490032
0.0850000000000001,873.348211218883
0.0860000000000001,873.356074991119
0.0870000000000001,873.363911176308
0.0880000000000001,873.371717285264
0.0890000000000001,873.379490965248
0.0900000000000001,873.38722999521
0.0910000000000001,873.394932281125
0.0920000000000001,873.402595851354
0.0930000000000001,873.410218852113
0.0940000000000001,873.417799543001
0.0950000000000001,873.42533629262
0.0960000000000001,873.432827574293
0.0970000000000001,873.440271961873
0.0980000000000001,873.447668125664
0.0990000000000001,873.455014828432
0.1,873.462310921549
0.101,873.46955534122
0.102,873.476747104846
0.103,873.483885307483
0.104,873.490969118419
0.105,873.497997777867
0.106,873.504970593761
0.107,873.511886938667
0.108,873.518746246803
0.109,873.52554801116
0.11,873.532291780739
0.111,873.538977157877
0.112,873.545603795685
0.113,873.552171395574
0.114,873.558679704887
0.115,873.565128514617
0.116,873.571517657218
0.117,873.577847004501
0.118,873.584116465621
0.119,873.59032598514
0.12,873.596475541177
0.121,873.60256514363
0.122,873.60859483247
0.123,873.614564676116
0.124,873.620474769879
0.125,873.626325234458
0.126,873.632116214523
0.127,873.637847877342
0.128,873.643520411481
0.129,873.649134025553
0.13,873.654688947025
0.131,873.660185421082
0.132,873.665623709539
0.133,873.671004089801
0.134,873.676326853871
0.135,873.681592307413
0.136,873.686800768839
0.137,873.691952568456
0.138,873.697048047645
0.139,873.702087558079
0.14,873.707071460978
0.141,873.712000126402
0.142,873.716873932574
0.143,873.721693265235
0.144,873.726458517037
0.145,873.731170086957
0.146,873.735828379744
0.147,873.740433805393
0.148,873.744986778644
0.149,873.749487718506
0.15,873.753937047804
0.151,873.758335192752
0.152,873.762682582546
0.153,873.766979648971
0.154,873.771226826046
0.155,873.775424219278
0.156,873.779572676578
0.157,873.783672619205
0.158,873.787724465335
0.159,873.791728640976
0.16,873.795685578082
0.161,873.799595712166
0.162,873.803459480643
0.163,873.807277321787
0.164,873.811049674044
0.165,873.814776975568
0.166,873.818459663872
0.167,873.822098175559
0.168,873.825692946096
0.169,873.829244409625
0.17,873.832752998787
0.171,873.836219144568
0.172,873.839643276164
0.173,873.843025820841
0.174,873.846367203824
0.175,873.849667848185
0.176,873.852928174736
0.177,873.856148601936
0.178,873.859329545803
0.179,873.86247141983
0.18,873.865574634914
0.181,873.868639599278
0.182,873.871666718413
0.183,873.874656395015
0.184,873.877609028931
0.185,873.880525017108
0.186,873.883404753547
0.187,873.886248629264
0.188,873.889057032248
0.189,873.891830347431
0.19,873.894568956651
0.191,873.897273238634
0.192,873.899943568959
0.193,873.902580320047
0.194,873.905183861136
0.195,873.907754558266
0.196,873.910292774269
0.197,873.912798868759
0.198,873.915273198115
0.199,873.917716115484
0.2,873.920127970775
0.201,873.922509110653
0.202,873.924859878543
0.203,873.927180614624
0.204,873.929471655842
0.205,873.931733335909
0.206,873.933965985305
0.207,873.936169931294
0.208,873.938345497924
0.209,873.940493006043
0.21,873.942612773305
0.211,873.944705114187
0.212,873.946770339996
0.213,873.948808758889
0.214,873.950820675879
0.215,873.952806392864
0.216,873.954766208629
0.217,873.956700418871
0.218,873.958609316217
0.219,873.960493190237
0.22,873.962352327469
0.221,873.964187011433
0.222,873.965997522657
0.223,873.967784138689
0.224,873.969547134126
0.225,873.971286780631
0.226,873.973003346954
0.227,873.974697098958
0.228,873.976368299633
0.229,873.978017209129
0.23,873.979644084771
0.231,873.981249181082
0.232,873.982832749811
0.233,873.984395039952
0.234,873.985936297769
0.235,873.987456766817
0.236,873.988956687971
0.237,873.990436299445
0.238,873.991895836816
0.239,873.993335533049
0.24,873.994755618521
0.241,873.996156321046
0.242,873.997537865896
0.243,873.998900475824
0.244,874.000244371096
0.245,874.001569769503
0.246,874.002876886393
0.247,874.004165934693
0.248,874.005436644314
0.249,874.006689812308
0.25,874.007925619979
0.251,874.009144242779
0.252,874.010345863458
0.253,874.011530669613
0.254,874.012698850908
0.255,874.013850597314
0.256,874.014986098095
0.257,874.016105541236
0.258,874.017209113127
0.259,874.018296998382
0.26,874.019369379742
0.261,874.020426438017
0.262,874.021468352068
0.263,874.022495298787
0.264,874.023507453106
0.265,874.024504987997
0.266,874.025488074486
0.267,874.026456881665
0.268,874.027411576707
0.269,874.028352324881
0.27,874.029279289576
0.271,874.030192632306
0.272,874.031092512744
0.273,874.031979088724
0.274,874.032852516275
0.275,874.033712949626
0.276,874.034560541234
0.277,874.035395441801
0.278,874.036217800291
0.279,874.037027763946
0.28,874.037825478309
0.281,874.038611087245
0.282,874.039384732949
0.283,874.040146555976
0.284,874.040896695247
0.285,874.041635288081
0.286,874.042362470199
0.287,874.043078375752
0.288,874.043783137333
0.289,874.044476885995
0.29,874.04515975127
0.291,874.045831861184
0.292,874.046493342277
0.293,874.047144319615
0.294,874.047784916809
0.295,874.048415256038
0.296,874.049035458048
0.297,874.049645642189
0.298,874.050245926416
0.299,874.050836427309
0.3,874.051417260093
0.301,874.051988538647
0.302,874.052550375523
0.303,874.053102881961
0.304,874.053646167902
0.305,874.054180342003
0.306,874.054705511658
0.307,874.055221783002
0.308,874.055729260933
0.309,874.056228049124
0.31,874.056718250035
0.311,874.057199964933
0.312,874.057673293901
0.313,874.058138335846
0.314,874.058595188528
0.315,874.059043948559
0.316,874.05948471142
0.317,874.059917571481
0.318,874.060342622004
0.319,874.060759955161
0.32,874.061169662047
0.321,874.06157183269
0.322,874.061966556064
0.323,874.062353920103
0.324,874.062734011712
0.325,874.063106916777
0.326,874.06347272018
0.327,874.063831505811
0.328,874.064183356573
0.329,874.064528354402
0.33,874.064866580274
0.331,874.065198114214
0.332,874.065523035315
0.333,874.065841421737
0.334,874.06615335073
0.335,874.066458898634
0.336,874.066758140899
0.337,874.067051152088
0.338,874.067338005892
0.339,874.067618775136
0.34,874.067893531796
0.341,874.068162346999
0.342,874.068425291041
0.343,874.068682433396
0.344,874.068933842718
0.345,874.069179586863
0.346,874.069419732887
0.347,874.069654347059
0.348,874.069883494875
0.349,874.07010724106
0.35,874.07032564958
0.351,874.070538783654
0.352,874.070746705755
0.353,874.070949477627
0.354,874.071147160289
0.355,874.071339814044
0.356,874.071527060907
0.357,874.071709483104
0.358,874.071887121368
0.359,874.072060012549
0.36,874.072228199643
0.361,874.07239173014
0.362,874.072550654047
0.363,874.072705022626
0.364,874.072854887634
0.365,874.073000300904
0.366,874.073141314084
0.367,874.073277978503
0.368,874.073410345076
0.369,874.073538464255
0.37,874.073662386002
0.371,874.073782159763
0.372,874.073897834461
0.373,874.074009458493
0.374,874.074117079721
0.375,874.074220745478
0.376,874.074320502565
0.377,874.074416397256
0.378,874.0745084753
0.379,874.074596781922
0.38,874.074681361835
0.381,874.074762259236
0.382,874.074839517812
0.383,874.074913180752
0.384,874.074983290742
0.385,874.075049889976
0.386,874.07511302016
0.387,874.075172722514
0.388,874.075229037785
0.389,874.07528200624
0.39,874.075331667682
0.391,874.075378061449
0.392,874.075421226421
0.393,874.075461201028
0.394,874.075498023245
0.395,874.075531730611
0.396,874.075562360223
0.397,874.075589948745
0.398,874.075614532414
0.399,874.075636147039
0.4,874.075654828017
0.401,874.075670610326
0.402,874.075683528536
0.403,874.075693616813
0.404,874.075700908921
0.405,874.075705438232
0.406,874.075707237724
0.407,874.07570633999
0.408,874.07570277724
0.409,874.075696581306
0.41,874.075687783652
0.411,874.075676415366
0.412,874.075662507175
0.413,874.075646089446
0.414,874.075627192188
0.415,874.075605845061
0.416,874.075582077374
0.417,874.075555918095
0.418,874.075527395848
0.419,874.075496538926
0.42,874.075463375286
0.421,874.07542793256
0.422,874.075390238053
0.423,874.075350318754
0.424,874.075308201329
0.425,874.075263912136
0.426,874.075217477223
0.427,874.075168922328
0.428,874.075118272894
0.429,874.075065554058
0.43,874.075010790668
0.431,874.074954007277
0.432,874.074895228149
0.433,874.074834477268
0.434,874.074771778332
0.435,874.074707154761
0.436,874.0746406297
0.437,874.074572226027
0.438,874.074501966346
0.439,874.074429872997
0.44,874.074355968059
0.441,874.074280273351
0.442,874.074202810435
0.443,874.074123600622
0.444,874.074042664971
0.445,874.073960024294
0.446,874.07387569916
0.447,874.073789709895
0.448,874.073702076587
0.449,874.073612819088
0.45,874.073521957017
0.451,874.073429509764
0.452,874.073335496488
0.453,874.073239936126
0.454,874.073142847392
0.455,874.07304424878
0.456,874.072944158568
0.457,874.072842594816
0.458,874.072739575377
0.459,874.07263511789
0.46,874.072529239789
0.461,874.072421958305
0.462,874.072313290462
0.463,874.072203253087
0.464,874.072091862811
0.465,874.071979136068
0.466,874.071865089098
0.467,874.071749737951
0.468,874.071633098491
0.469,874.071515186392
0.47,874.071396017146
0.471,874.071275606063
0.472,874.071153968273
0.473,874.071031118729
0.474,874.070907072207
0.475,874.070781843311
0.476,874.070655446472
0.477,874.070527895954
0.478,874.070399205852
0.479,874.070269390093
0.48,874.070138462445
0.481,874.070006436512
0.482,874.069873325739
0.483,874.069739143412
0.484,874.069603902662
0.485,874.069467616466
0.486,874.069330297648
0.487,874.06919195888
0.488,874.069052612689
0.489,874.068912271452
0.49,874.068770947401
0.491,874.068628652625
0.492,874.068485399072
0.493,874.068341198547
0.494,874.068196062717
0.495,874.068050003114
0.496,874.067903031135
0.497,874.067755158039
0.498,874.067606394957
0.499,874.067456752887
0.5,874.0673062427
0.501,874.067154875135
0.502,874.067002660811
0.503,874.066849610217
0.504,874.066695733721
0.505,874.066541041571
0.506,874.06638554389
0.507,874.066229250687
0.508,874.066072171851
0.509,874.065914317154
0.51,874.065755696256
0.511,874.065596318702
0.512,874.065436193923
0.513,874.065275331243
0.514,874.065113739874
0.515,874.064951428921
0.516,874.064788407381
0.517,874.064624684146
0.518,874.064460268002
0.519,874.064295167635
0.52,874.064129391627
0.521,874.063962948459
0.522,874.063795846513
0.523,874.063628094072
0.524,874.063459699321
0.525,874.063290670351
0.526,874.063121015157
0.527,874.06295074164
0.528,874.062779857607
0.529,874.062608370776
0.53,874.062436288771
0.531,874.062263619129
0.532,874.062090369297
0.533,874.061916546636
0.534,874.06174215842
0.535,874.061567211836
0.536,874.061391713987
0.537,874.061215671896
0.538,874.061039092498
0.539,874.060861982652
0.54,874.060684349132
0.541,874.060506198633
0.542,874.060327537776
0.543,874.060148373097
0.544,874.059968711062
0.545,874.059788558055
0.546,874.05960792039
0.547,874.059426804304
0.548,874.059245215961
0.549,874.059063161454
0.55,874.058880646802
0.551,874.058697677955
0.552,874.058514260794
0.553,874.058330401129
0.554,874.058146104702
0.555,874.057961377187
0.556,874.057776224194
0.557,874.057590651264
0.558,874.057404663874
0.559,874.057218267437
0.56,874.057031467303
0.561,874.056844268757
0.562,874.056656677024
0.563,874.056468697267
0.564,874.056280334586
0.565,874.056091594025
0.566,874.055902480566
0.567,874.055712999133
0.568,874.055523154594
0.569,874.055332951755
0.57,874.055142395371
0.571,874.054951490138
0.572,874.054760240698
0.573,874.054568651637
0.574,874.054376727488
0.575,874.054184472731
0.576,874.053991891794
0.577,874.053798989051
0.578,874.053605768825
0.579,874.053412235389
0.58,874.053218392966
0.581,874.053024245728
0.582,874.052829797799
0.583,874.052635053256
0.584,874.052440016123
0.585,874.052244690382
0.586,874.052049079966
0.587,874.05185318876
0.588,874.051657020608
0.589,874.051460579304
0.59,874.0512638686
0.591,874.051066892204
0.592,874.050869653779
0.593,874.050672156943
0.594,874.050474405277
0.595,874.050276402317
0.596,874.050078151555
0.597,874.049879656444
0.598,874.0496809204
0.599,874.049481946791
0.6,874.049282738952
0.601,874.049083300176
0.602,874.048883633718
0.603,874.048683742793
0.604,874.048483630581
0.605,874.048283300223
0.606,874.048082754822
0.607,874.047881997447
0.608,874.047681031128
0.609,874.047479858862
0.61,874.047278483608
0.611,874.047076908295
0.612,874.046875135811
0.613,874.046673169015
0.614,874.046471010729
0.615,874.046268663745
0.616,874.04606613082
0.617,874.04586341468
0.618,874.045660518015
0.619,874.045457443489
0.62,874.045254193731
0.621,874.04505077134
0.622,874.044847178884
0.623,874.044643418902
0.624,874.044439493901
0.625,874.04423540636
0.626,874.04403115873
0.627,874.043826753429
0.628,874.04362219285
0.629,874.043417479359
0.63,874.043212615289
0.631,874.04300760295
0.632,874.042802444624
0.633,874.042597142565
0.634,874.042391698999
0.635,874.042186116131
0.636,874.041980396134
0.637,874.041774541159
0.638,874.041568553332
0.639,874.04136243475
0.64,874.04115618749
0.641,874.040949813601
0.642,874.040743315111
0.643,874.040536694023
0.644,874.040329952313
0.645,874.040123091938
0.646,874.03991611483
0.647,874.039709022899
0.648,874.039501818032
0.649,874.039294502094
0.65,874.039087076928
0.651,874.038879544355
0.652,874.038671906175
0.653,874.038464164165
0.654,874.038256320085
0.655,874.038048375669
0.656,874.037840332635
0.657,874.037632192678
0.658,874.037423957475
0.659,874.037215628681
0.66,874.037007207933
0.661,874.036798696849
0.662,874.036590097027
0.663,874.036381410046
0.664,874.036172637466
0.665,874.035963780832
0.666,874.035754841665
0.667,874.035545821473
0.668,874.035336721743
0.669,874.035127543947
0.67,874.034918289538
0.671,874.034708959952
0.672,874.034499556608
0.673,874.034290080909
0.674,874.034080534241
0.675,874.033870917973
0.676,874.033661233459
0.677,874.033451482035
0.678,874.033241665024
0.679,874.033031783732
0.68,874.032821839449
0.681,874.03261183345
0.682,874.032401766995
0.683000000000001,874.03219164133
0.684000000000001,874.031981457686
0.685000000000001,874.031771217278
0.686000000000001,874.031560921307
0.687000000000001,874.031350570962
0.688000000000001,874.031140167416
0.689000000000001,874.030929711828
0.690000000000001,874.030719205344
0.691000000000001,874.030508649096
0.692000000000001,874.030298044203
0.693000000000001,874.030087391771
0.694000000000001,874.029876692892
0.695000000000001,874.029665948645
0.696000000000001,874.029455160098
0.697000000000001,874.029244328305
0.698000000000001,874.029033454307
0.699000000000001,874.028822539133
0.700000000000001,874.028611583802
0.701000000000001,874.028400589316
0.702000000000001,874.028189556672
0.703000000000001,874.027978486849
0.704000000000001,874.027767380817
0.705000000000001,874.027556239535
0.706000000000001,874.02734506395
0.707000000000001,874.027133854997
0.708000000000001,874.026922613601
0.709000000000001,874.026711340676
0.710000000000001,874.026500037124
0.711000000000001,874.026288703838
0.712000000000001,874.0260773417
0.713000000000001,874.025865951579
0.714000000000001,874.025654534338
0.715000000000001,874.025443090826
0.716000000000001,874.025231621885
0.717000000000001,874.025020128344
0.718000000000001,874.024808611025
0.719000000000001,874.024597070739
0.720000000000001,874.024385508285
0.721000000000001,874.024173924457
0.722000000000001,874.023962320036
0.723000000000001,874.023750695796
0.724000000000001,874.023539052501
0.725000000000001,874.023327390906
0.726000000000001,874.023115711755
0.727000000000001,874.022904015787
0.728000000000001,874.022692303729
0.729000000000001,874.022480576301
0.730000000000001,874.022268834214
0.731000000000001,874.022057078171
0.732000000000001,874.021845308866
0.733000000000001,874.021633526984
0.734000000000001,874.021421733204
0.735000000000001,874.021209928195
0.736000000000001,874.020998112619
0.737000000000001,874.02078628713
0.738000000000001,874.020574452374
0.739000000000001,874.02036260899
0.740000000000001,874.020150757607
0.741000000000001,874.019938898849
0.742000000000001,874.019727033333
0.743000000000001,874.019515161667
0.744000000000001,874.019303284452
0.745000000000001,874.019091402281
0.746000000000001,874.018879515743
0.747000000000001,874.018667625418
0.748000000000001,874.018455731877
0.749000000000001,874.018243835688
0.750000000000001,874.01803193741
0.751000000000001,874.017820037597
0.752000000000001,874.017608136792
0.753000000000001,874.017396235538
0.754000000000001,874.017184334367
0.755000000000001,874.016972433806
0.756000000000001,874.016760534375
0.757000000000001,874.01654863659
0.758000000000001,874.016336740957
0.759000000000001,874.01612484798
0.760000000000001,874.015912958155
0.761000000000001,874.015701071972
0.762000000000001,874.015489189914
0.763000000000001,874.015277312462
0.764000000000001,874.015065440086
0.765000000000001,874.014853573256
0.766000000000001,874.014641712431
0.767000000000001,874.01442985807
0.768000000000001,874.014218010621
0.769000000000001,874.014006170529
0.770000000000001,874.013794338237
0.771000000000001,874.013582514176
0.772000000000001,874.013370698778
0.773000000000001,874.013158892466
0.774000000000001,874.01294709566
0.775000000000001,874.012735308772
0.776000000000001,874.012523532214
0.777000000000001,874.012311766389
0.778000000000001,874.012100011696
0.779000000000001,874.011888268529
0.780000000000001,874.011676537279
0.781000000000001,874.011464818331
0.782000000000001,874.011253112065
0.783000000000001,874.011041418858
0.784000000000001,874.010829739081
0.785000000000001,874.010618073099
0.786000000000001,874.010406421277
0.787000000000001,874.010194783974
0.788000000000001,874.00998316154
0.789000000000001,874.009771554328
0.790000000000001,874.009559962682
0.791000000000001,874.009348386943
0.792000000000001,874.009136827449
0.793000000000001,874.008925284533
0.794000000000001,874.008713758523
0.795000000000001,874.008502249745
