"Physical Time: Physical Time (s)","Surface Average Rear Temp1 Monitor: Surface Average of Temperature (K)"
0.001,573.000000002994
0.002,573.000000035747
0.003,573.000000223472
0.004,573.000000974614
0.005,573.000003333859
0.006,573.000009534417
0.007,573.000023729754
0.008,573.000052827734
0.009,573.000107307971
0.01,573.000201889326
0.011,573.00035593256
0.012,573.000593503826
0.013,573.000943076853
0.014,573.001436901434
0.015,573.002110103007
0.016,573.002999603615
0.017,573.004142958164
0.018,573.005577196069
0.019,573.007337744958
0.02,573.009457481314
0.021,573.011965963897
0.022,573.014888845903
0.023,573.018247476584
0.024,573.022058679884
0.025,573.026334691172
0.026,573.031083228599
0.027,573.036307681779
0.028,573.042007351448
0.029,573.048177801505
0.03,573.054811215785
0.031,573.061896784626
0.032,573.069421098917
0.033,573.077368539231
0.034,573.085721650914
0.035,573.09446149849
0.036,573.103567994927
0.037,573.113020202892
0.038,573.122796606746
0.039,573.132875354913
0.04,573.143234466862
0.041,573.153852039444
0.042,573.164706382122
0.043,573.175776162745
0.044,573.18704051934
0.045,573.19847915224
0.046,573.210072398161
0.047,573.221801288163
0.048,573.23364759134
0.049,573.245593846076
0.05,573.257623380431
0.051,573.269720323281
0.052,573.281869607492
0.053,573.294056966421
0.054,573.306268924802
0.055,573.318492785056
0.056,573.330716609804
0.057,573.342929201417
0.058,573.355120079217
0.059,573.367279454885
0.06,573.3793982066
0.061,573.391467852324
0.062,573.403480522528
0.063,573.415428932764
0.064,573.427306356215
0.065,573.439106465202
0.066,573.450823734817
0.067,573.462452937834
0.068,573.473989301543
0.069,573.485428484223
0.07,573.496766549634
0.071,573.507999942773
0.0720000000000001,573.519125467036
0.0730000000000001,573.530140262525
0.0740000000000001,573.541041785448
0.0750000000000001,573.551827788495
0.0760000000000001,573.562496302162
0.0770000000000001,573.573045617007
0.0780000000000001,573.583474266783
0.0790000000000001,573.593781012429
0.0800000000000001,573.60396482692
0.0810000000000001,573.614024880898
0.0820000000000001,573.623960529114
0.0830000000000001,573.633771297579
0.0840000000000001,573.643456871472
0.0850000000000001,573.653017083715
0.0860000000000001,573.66245190421
0.0870000000000001,573.671761429716
0.0880000000000001,573.680945874287
0.0890000000000001,573.690005560342
0.0900000000000001,573.698940910203
0.0910000000000001,573.707752438208
0.0920000000000001,573.716440743264
0.0930000000000001,573.725006501894
0.0940000000000001,573.733450461693
0.0950000000000001,573.741773435222
0.0960000000000001,573.749976294262
0.0970000000000001,573.75805996446
0.0980000000000001,573.766025420308
0.0990000000000001,573.773873680453
0.1,573.781605803309
0.101,573.789222882967
0.102,573.79672604537
0.103,573.804116444758
0.104,573.811395260327
0.105,573.818563693141
0.106,573.825622963259
0.107,573.832574307027
0.108,573.839418974598
0.109,573.846158227609
0.11,573.852793337023
0.111,573.859325581132
0.112,573.865756243704
0.113,573.872086612254
0.114,573.878317976474
0.115,573.884451338702
0.116,573.890488357565
0.117,573.896430294718
0.118,573.902278414559
0.119,573.908033985613
0.12,573.91369827636
0.121,573.919272552069
0.122,573.924758072728
0.123,573.930156091631
0.124,573.935467854332
0.125,573.940694597826
0.126,573.945837549864
0.127,573.950897928373
0.128,573.95587694094
0.129,573.960775784376
0.13,573.965595644307
0.131,573.97033769484
0.132,573.975003098249
0.133,573.979593004704
0.134,573.984108552041
0.135,573.988550865555
0.136,573.992921057829
0.137,573.997220228582
0.138,574.001449464554
0.139,574.005609839398
0.14,574.0097024136
0.141,574.013728234435
0.142,574.017688335906
0.143,574.021583738739
0.144,574.025415450357
0.145,574.029184464899
0.146,574.032891763228
0.147,574.036538312975
0.148,574.040125068563
0.149,574.043652971275
0.15,574.047122949307
0.151,574.050535917838
0.152,574.053892779116
0.153,574.05719442253
0.154,574.060441724708
0.155,574.063635549618
0.156,574.066776748666
0.157,574.069866160799
0.158,574.072904612633
0.159,574.075892918545
0.16,574.078831880815
0.161,574.081722289733
0.162,574.084564923727
0.163,574.0873605495
0.164,574.090109922145
0.165,574.092813785289
0.166,574.095472871213
0.167,574.098087900995
0.168,574.100659584646
0.169,574.103188621245
0.17,574.10567569906
0.171,574.108121495706
0.172,574.110526678277
0.173,574.112891903474
0.174,574.115217403237
0.175,574.11750434099
0.176,574.119753305189
0.177,574.121964884927
0.178,574.124139670952
0.179,574.126278251155
0.18,574.128381207677
0.181,574.130449115407
0.182,574.132482541239
0.183,574.134482043744
0.184,574.136448173047
0.185,574.138381470788
0.186,574.140282470171
0.187,574.142151696024
0.188,574.143989664898
0.189,574.145796885146
0.19,574.147573857043
0.191,574.149321072889
0.192,574.151039017123
0.193,574.152728166424
0.194,574.154388989842
0.195,574.156021948888
0.196,574.157627497671
0.197,574.159206082982
0.198,574.160758144433
0.199,574.162284114538
0.2,574.163784418839
0.201,574.165259476013
0.202,574.166709697969
0.203,574.168135489961
0.204,574.169537250686
0.205,574.170915372386
0.206,574.172270240958
0.207,574.173602236038
0.208,574.174911731116
0.209,574.176199093617
0.21,574.177464685007
0.211,574.178708860888
0.212,574.179931971087
0.213,574.181134359741
0.214,574.182316365399
0.215,574.18347832111
0.216,574.184620554502
0.217,574.185743387874
0.218,574.186847138284
0.219,574.187932117623
0.22,574.188998632715
0.221,574.190046985375
0.222,574.191077472515
0.223,574.192090386197
0.224,574.193086013734
0.225,574.194064637748
0.226,574.195026536263
0.227,574.19597198276
0.228,574.196901246268
0.229,574.197814591425
0.23,574.198712278551
0.231,574.199594563718
0.232,574.200461698825
0.233,574.201313931653
0.234,574.202151505947
0.235,574.202974661459
0.236,574.203783634047
0.237,574.204578655697
0.238,574.205359378949
0.239,574.206126748762
0.24,574.206880935639
0.241,574.207622122895
0.242,574.20835050455
0.243,574.209066279276
0.244,574.209769646754
0.245,574.210460805761
0.246,574.211139953195
0.247,574.211807283561
0.248,574.212462988722
0.249,574.213107257761
0.25,574.21374027691
0.251,574.214362229539
0.252,574.214973296152
0.253,574.215573654402
0.254,574.216163479109
0.255,574.216742942307
0.256,574.217312213259
0.257,574.217871458502
0.258,574.218420841881
0.259,574.218960524593
0.26,574.219490665218
0.261,574.220011419763
0.262,574.220522941699
0.263,574.221025382006
0.264,574.2215188892
0.265,574.222003609384
0.266,574.222479686275
0.267,574.222947261252
0.268,574.223406473388
0.269,574.223857459479
0.27,574.224300354099
0.271,574.224735289622
0.272,574.225162396254
0.273,574.225581802087
0.274,574.225993633109
0.275,574.226398013254
0.276,574.226795064433
0.277,574.227184906562
0.278,574.227567657601
0.279,574.227943433577
0.28,574.228312348617
0.281,574.228674514996
0.282,574.229030043142
0.283,574.229379041678
0.284,574.229721617452
0.285,574.230057875569
0.286,574.230387919413
0.287,574.230711850675
0.288,574.231029769382
0.289,574.231341773931
0.29,574.231647961101
0.291,574.231948426096
0.292,574.232243262557
0.293,574.232532562601
0.294,574.232816416831
0.295,574.233094914366
0.296,574.233368142877
0.297,574.233636188592
0.298,574.233899136333
0.299,574.234157069533
0.3,574.234410070259
0.301,574.234658219235
0.302,574.234901595871
0.303,574.235140278267
0.304,574.235374343258
0.305,574.235603866408
0.306,574.235828922057
0.307,574.236049583325
0.308,574.236265922127
0.309,574.236477263404
0.31,574.236684583953
0.311,574.236887896501
0.312,574.237087232693
0.313,574.2372826381
0.314,574.23747416561
0.315,574.23766187162
0.316,574.237845814053
0.317,574.238026051326
0.318,574.238202641794
0.319,574.238375643422
0.32,574.238545113626
0.321,574.238711109155
0.322,574.238873686022
0.323,574.239032899481
0.324,574.239188803997
0.325,574.239341453232
0.326,574.239490900043
0.327,574.239637196475
0.328,574.239780393778
0.329,574.239920542399
0.33,574.240057691991
0.331,574.24019189143
0.332,574.240323188808
0.333,574.240451631451
0.334,574.240577265932
0.335,574.240700138076
0.336,574.240820292969
0.337,574.240937774977
0.338,574.241052627739
0.339,574.241164894199
0.34,574.241274616602
0.341,574.241381836506
0.342,574.241486594798
0.343,574.241588931702
0.344,574.241688886785
0.345,574.241786498972
0.346,574.241881806556
0.347,574.241974847203
0.348,574.242065657971
0.349,574.242154275315
0.35,574.242240735082
0.351,574.242325072556
0.352,574.242407322429
0.353,574.242487518834
0.354,574.242565695342
0.355,574.242641884983
0.356,574.242716120246
0.357,574.242788433086
0.358,574.24285885494
0.359,574.242927416729
0.36,574.242994148871
0.361,574.243059081284
0.362,574.243122243405
0.363,574.243183664183
0.364,574.243243372094
0.365,574.243301395155
0.366,574.243357760918
0.367,574.243412496489
0.368,574.24346562853
0.369,574.243517183272
0.37,574.243567186508
0.371,574.243615663616
0.372,574.243662639564
0.373,574.243708138897
0.374,574.243752185773
0.375,574.243794803954
0.376,574.2438360168
0.377,574.24387584731
0.378,574.243914318092
0.379,574.24395145139
0.38,574.243987269081
0.381,574.244021792692
0.382,574.244055043392
0.383,574.244087042004
0.384,574.244117809014
0.385,574.24414736457
0.386,574.244175728494
0.387,574.244202920281
0.388,574.244228959111
0.389,574.244253863845
0.39,574.244277653043
0.391,574.244300344958
0.392,574.244321957544
0.393,574.244342508459
0.394,574.244362015082
0.395,574.244380494495
0.396,574.244397963513
0.397,574.24441443867
0.398,574.244429936231
0.399,574.244444472194
0.4,574.244458062294
0.401,574.244470722018
0.402,574.244482466587
0.403,574.244493310984
0.404,574.244503269941
0.405,574.244512357953
0.406,574.244520589274
0.407,574.244527720017
0.408,574.244534066062
0.409,574.24453963476
0.41,574.244544431948
0.411,574.24454846552
0.412,574.24455174487
0.413,574.244554280263
0.414,574.244556082418
0.415,574.244557162262
0.416,574.244557530803
0.417,574.244557199038
0.418,574.244556177908
0.419,574.244554478266
0.42,574.24455211085
0.421,574.244549086279
0.422,574.244545415036
0.423,574.244541107469
0.424,574.244536173784
0.425,574.244530624038
0.426,574.24452446815
0.427,574.244517715888
0.428,574.244510376875
0.429,574.244502460592
0.43,574.244493976375
0.431,574.244484933411
0.432,574.244475340751
0.433,574.244465207301
0.434,574.24445454183
0.435,574.24444335297
0.436,574.244431649211
0.437,574.244419438914
0.438,574.244406730303
0.439,574.244393531474
0.44,574.244379850393
0.441,574.244365694895
0.442,574.244351072691
0.443,574.244335991369
0.444,574.244320458392
0.445,574.244304481106
0.446,574.244288066736
0.447,574.24427122239
0.448,574.244253955061
0.449,574.244236271628
0.45,574.244218178859
0.451,574.244199683414
0.452,574.244180791844
0.453,574.244161510591
0.454,574.244141845998
0.455,574.244121804294
0.456,574.244101391623
0.457,574.244080614013
0.458,574.244059477409
0.459,574.244037987642
0.46,574.244016150465
0.461,574.24399397153
0.462,574.243971456393
0.463,574.243948610531
0.464,574.243925439317
0.465,574.243901948054
0.466,574.243878141942
0.467,574.243854026109
0.468,574.243829605594
0.469,574.243804885355
0.47,574.24377987027
0.471,574.243754565136
0.472,574.243728974679
0.473,574.243703103533
0.474,574.243676956275
0.475,574.243650537398
0.476,574.243623851321
0.477,574.243596902394
0.478,574.2435696949
0.479,574.243542233044
0.48,574.243514520972
0.481,574.243486562754
0.482,574.243458362399
0.483,574.243429923853
0.484,574.243401250991
0.485,574.243372347636
0.486,574.243343217537
0.487,574.243313864389
0.488,574.243284291828
0.489,574.243254503425
0.49,574.2432245027
0.491,574.243194293114
0.492,574.243163878069
0.493,574.243133260911
0.494,574.24310244494
0.495,574.243071433393
0.496,574.243040229462
0.497,574.243008836284
0.498,574.242977256942
0.499,574.242945494475
0.5,574.242913551868
0.501,574.242881432064
0.502,574.242849137951
0.503,574.242816672372
0.504,574.242784038127
0.505,574.24275123797
0.506,574.242718274607
0.507,574.242685150705
0.508,574.242651868883
0.509,574.24261843172
0.51,574.242584841758
0.511,574.242551101489
0.512,574.24251721337
0.513,574.242483179814
0.514,574.242449003206
0.515,574.242414685876
0.516,574.242380230126
0.517,574.242345638223
0.518,574.242310912391
0.519,574.242276054823
0.52,574.242241067676
0.521,574.242205953061
0.522,574.242170713075
0.523,574.242135349764
0.524,574.24209986515
0.525,574.24206426122
0.526,574.242028539923
0.527,574.241992703187
0.528,574.241956752905
0.529,574.241920690933
0.53,574.241884519106
0.531,574.241848239221
0.532,574.241811853053
0.533,574.241775362345
0.534,574.241738768813
0.535,574.241702074143
0.536,574.241665279995
0.537,574.241628388005
0.538,574.241591399778
0.539,574.241554316894
0.54,574.24151714091
0.541,574.241479873356
0.542,574.241442515737
0.543,574.241405069533
0.544,574.241367536203
0.545,574.241329917179
0.546,574.241292213876
0.547,574.241254427673
0.548,574.241216559942
0.549,574.241178612024
0.55,574.241140585239
0.551,574.241102480889
0.552,574.241064300252
0.553,574.241026044584
0.554,574.240987715127
0.555,574.240949313096
0.556,574.240910839691
0.557,574.240872296091
0.558,574.240833683449
0.559,574.240795002916
0.56,574.240756255608
0.561,574.240717442633
0.562,574.240678565073
0.563,574.240639624001
0.564,574.240600620465
0.565,574.240561555504
0.566,574.240522430131
0.567,574.24048324535
0.568,574.240444002145
0.569,574.240404701491
0.57,574.24036534433
0.571,574.240325931614
0.572,574.240286464252
0.573,574.240246943163
0.574,574.240207369233
0.575,574.240167743349
0.576,574.240128066365
0.577,574.240088339142
0.578,574.240048562512
0.579,574.240008737294
0.58,574.239968864307
0.581,574.239928944344
0.582,574.239888978186
0.583,574.239848966609
0.584,574.239808910369
0.585,574.239768810214
0.586,574.239728666882
0.587,574.239688481087
0.588,574.239648253548
0.589,574.23960798496
0.59,574.239567676016
0.591,574.239527327386
0.592,574.239486939741
0.593,574.239446513734
0.594,574.239406050014
0.595,574.23936554921
0.596,574.239325011947
0.597,574.239284438842
0.598,574.239243830498
0.599,574.239203187506
0.6,574.239162510454
0.601,574.239121799917
0.602,574.239081056459
0.603,574.239040280636
0.604,574.238999473002
0.605,574.238958634088
0.606,574.238917764428
0.607,574.238876864542
0.608,574.238835934945
0.609,574.238794976142
0.61,574.238753988628
0.611,574.238712972892
0.612,574.238671929413
0.613,574.238630858668
0.614,574.238589761119
0.615,574.238548637224
0.616,574.238507487436
0.617,574.238466312196
0.618,574.238425111939
0.619,574.238383887094
0.62,574.238342638086
0.621,574.238301365327
0.622,574.238260069226
0.623,574.238218750188
0.624,574.238177408601
0.625,574.238136044861
0.626,574.238094659348
0.627,574.238053252437
0.628,574.2380118245
0.629,574.237970375901
0.63,574.237928906998
0.631,574.237887418144
0.632,574.237845909687
0.633,574.237804381964
0.634,574.237762835315
0.635,574.237721270071
0.636,574.237679686555
0.637,574.237638085082
0.638,574.237596465975
0.639,574.237554829542
0.64,574.237513176084
0.641,574.237471505902
0.642,574.23742981929
0.643,574.23738811654
0.644,574.237346397935
0.645,574.237304663756
0.646,574.237262914281
0.647,574.23722114978
0.648,574.23717937052
0.649,574.237137576765
0.65,574.237095768773
0.651,574.237053946797
0.652,574.237012111092
0.653,574.236970261899
0.654,574.236928399463
0.655,574.236886524022
0.656,574.236844635809
0.657,574.236802735059
0.658,574.236760821993
0.659,574.23671889684
0.66,574.236676959816
0.661,574.236635011141
0.662,574.236593051021
0.663,574.236551079671
0.664,574.236509097296
0.665,574.236467104101
0.666,574.236425100274
0.667,574.236383086025
0.668,574.236341061539
0.669,574.236299027007
0.67,574.236256982616
0.671,574.236214928551
0.672,574.236172864991
0.673,574.236130792115
0.674,574.236088710096
0.675,574.236046619108
0.676,574.236004519318
0.677,574.235962410894
0.678,574.235920294001
0.679,574.235878168798
0.68,574.235836035444
0.681,574.235793894097
0.682,574.235751744906
0.683000000000001,574.235709588029
0.684000000000001,574.235667423607
0.685000000000001,574.23562525179
0.686000000000001,574.235583072722
0.687000000000001,574.235540886544
0.688000000000001,574.235498693394
0.689000000000001,574.235456493409
0.690000000000001,574.235414286727
0.691000000000001,574.235372073476
0.692000000000001,574.235329853789
0.693000000000001,574.235287627794
0.694000000000001,574.235245395615
0.695000000000001,574.23520315738
0.696000000000001,574.235160913207
0.697000000000001,574.235118663222
0.698000000000001,574.235076407536
0.699000000000001,574.235034146269
0.700000000000001,574.234991879538
0.701000000000001,574.23494960745
0.702000000000001,574.234907330121
0.703000000000001,574.234865047652
0.704000000000001,574.234822760159
0.705000000000001,574.234780467742
0.706000000000001,574.23473817051
0.707000000000001,574.234695868561
0.708000000000001,574.234653561995
0.709000000000001,574.234611250912
0.710000000000001,574.234568935409
0.711000000000001,574.234526615582
0.712000000000001,574.234484291526
0.713000000000001,574.234441963331
0.714000000000001,574.23439963109
0.715000000000001,574.234357294892
0.716000000000001,574.234314954825
0.717000000000001,574.234272610976
0.718000000000001,574.234230263429
0.719000000000001,574.23418791227
0.720000000000001,574.234145557581
0.721000000000001,574.234103199442
0.722000000000001,574.234060837932
0.723000000000001,574.234018473135
0.724000000000001,574.233976105122
0.725000000000001,574.233933733973
0.726000000000001,574.23389135976
0.727000000000001,574.233848982559
0.728000000000001,574.233806602441
0.729000000000001,574.233764219479
0.730000000000001,574.23372183374
0.731000000000001,574.233679445299
0.732000000000001,574.233637054215
0.733000000000001,574.233594660562
0.734000000000001,574.233552264405
0.735000000000001,574.233509865802
0.736000000000001,574.233467464826
0.737000000000001,574.233425061532
0.738000000000001,574.233382655988
0.739000000000001,574.233340248248
0.740000000000001,574.233297838374
0.741000000000001,574.233255426428
0.742000000000001,574.233213012464
0.743000000000001,574.233170596539
0.744000000000001,574.233128178711
0.745000000000001,574.233085759032
0.746000000000001,574.233043337557
0.747000000000001,574.233000914339
0.748000000000001,574.232958489431
0.749000000000001,574.232916062884
0.750000000000001,574.232873634751
0.751000000000001,574.232831205075
0.752000000000001,574.232788773913
0.753000000000001,574.232746341308
0.754000000000001,574.23270390731
0.755000000000001,574.232661471963
0.756000000000001,574.232619035314
0.757000000000001,574.23257659741
0.758000000000001,574.232534158294
0.759000000000001,574.232491718008
0.760000000000001,574.232449276598
0.761000000000001,574.232406834106
0.762000000000001,574.232364390571
0.763000000000001,574.232321946033
0.764000000000001,574.232279500537
0.765000000000001,574.232237054119
0.766000000000001,574.232194606821
0.767000000000001,574.232152158675
0.768000000000001,574.232109709728
0.769000000000001,574.232067260009
0.770000000000001,574.232024809559
0.771000000000001,574.231982358413
0.772000000000001,574.231939906604
0.773000000000001,574.23189745417
0.774000000000001,574.231855001141
0.775000000000001,574.231812547558
0.776000000000001,574.231770093445
0.777000000000001,574.231727638843
0.778000000000001,574.231685183779
0.779000000000001,574.231642728283
0.780000000000001,574.231600272388
0.781000000000001,574.231557816128
0.782000000000001,574.23151535953
0.783000000000001,574.231472902621
0.784000000000001,574.231430445435
0.785000000000001,574.231387987997
0.786000000000001,574.231345530335
0.787000000000001,574.231303072477
0.788000000000001,574.231260614455
0.789000000000001,574.231218156288
0.790000000000001,574.231175698007
0.791000000000001,574.231133239636
0.792000000000001,574.231090781203
0.793000000000001,574.231048322732
0.794000000000001,574.231005864244
0.795000000000001,574.230963405768
0.796000000000001,574.230920947326
